1.1	0	0	0	0	0	0	0	0	0	0	0	0	0	0	0	0	0	0	0	0
1.15	0	0	0	0	0	0	0	0	0	0	0	0	0	0	0	0	0	0	0	0
1.2	1	0	0	0	0	0	0	0	0	0	0	0	0	0	0	0	0	0	0	0
1.25	1	0	0	0	0	0	0	0	0	0	0	0	0	0	0	0	0	0	0	0
1.3	1	0	0	0	0	0	0	0	0	0	0	0	0	0	0	0	0	0	0	0
1.35	1	0	0	0	0	0	0	0	0	0	0	0	0	0	0	0	0	0	0	0
1.4	1	0	0	0	0	0	0	0	0	0	0	0	0	0	0	0	0	0	0	0
1.45	1	0	0	0	0	0	0	0	0	0	0	0	0	0	0	0	0	0	0	0
1.5	1	0	0	0	0	0	0	0	0	0	0	0	0	0	0	0	0	0	0	0
1.55	1	0	0	0	0	0	0	0	0	0	0	0	0	0	0	0	0	0	0	0
1.6	1	0	0	0	0	0	0	0	0	0	0	0	0	0	0	0	0	0	0	0
1.65	1	0	0	0	0	0	0	0	0	0	0	0	0	0	0	0	0	0	0	0
1.7	1	0	0	0	0	0	0	0	0	0	0	0	0	0	0	0	0	0	0	0
1.75	1	0	0	0	0	0	0	0	0	0	0	0	0	0	0	0	0	0	0	0
1.8	1	0	0	0	0	0	0	0	0	0	0	0	0	0	0	0	0	0	0	0
1.85	1	0	0	0	0	0	0	0	0	0	0	0	0	0	0	0	0	0	0	0
1.9	1	0	0	0	0	0	0	0	0	0	0	0	0	0	0	0	0	0	0	0
1.95	1	0	0	0	0	0	0	0	0	0	0	0	0	0	0	0	0	0	0	0
2	1	0	0	0	0	0	0	0	0	0	0	0	0	0	0	0	0	0	0	0
2.05	1	0	0	0	0	0	0	0	0	0	0	0	0	0	0	0	0	0	0	0
2.1	1	0	0	0	0	0	0	0	0	0	0	0	0	0	0	0	0	0	0	0
2.15	1	0	0	0	0	0	0	0	0	0	0	0	0	0	0	0	0	0	0	0
2.2	1	0	0	0	0	0	0	0	0	0	0	0	0	0	0	0	0	0	0	0
2.25	1	0	0	0	0	0	0	0	0	0	0	0	0	0	0	0	0	0	0	0
2.3	1	0	0	0	0	0	0	0	0	0	0	0	0	0	0	0	0	0	0	0
2.35	1	0	0	0	0	0	0	0	0	0	0	0	0	0	0	0	0	0	0	0
2.4	1	0	0	0	0	0	0	0	0	0	0	0	0	0	0	0	0	0	0	0
2.45	0.99999	1e-05	0	0	0	0	0	0	0	0	0	0	0	0	0	0	0	0	0	0
2.5	0.99997	3e-05	0	0	0	0	0	0	0	0	0	0	0	0	0	0	0	0	0	0
2.55	0.99996	4e-05	0	0	0	0	0	0	0	0	0	0	0	0	0	0	0	0	0	0
2.6	0.99992	8e-05	0	0	0	0	0	0	0	0	0	0	0	0	0	0	0	0	0	0
2.65	0.99967	0.00033	0	0	0	0	0	0	0	0	0	0	0	0	0	0	0	0	0	0
2.7	0.99955	0.00045	0	0	0	0	0	0	0	0	0	0	0	0	0	0	0	0	0	0
2.75	0.99931	0.00069	0	0	0	0	0	0	0	0	0	0	0	0	0	0	0	0	0	0
2.8	0.99865	0.00135	0	0	0	0	0	0	0	0	0	0	0	0	0	0	0	0	0	0
2.85	0.99777	0.00223	0	0	0	0	0	0	0	0	0	0	0	0	0	0	0	0	0	0
2.9	0.99689	0.00311	0	0	0	0	0	0	0	0	0	0	0	0	0	0	0	0	0	0
2.95	0.99547	0.00453	0	0	0	0	0	0	0	0	0	0	0	0	0	0	0	0	0	0
3	0.99444	0.00556	0	0	0	0	0	0	0	0	0	0	0	0	0	0	0	0	0	0
3.05	0.99191	0.00809	0	0	0	0	0	0	0	0	0	0	0	0	0	0	0	0	0	0
3.1	0.98933	0.01067	0	0	0	0	0	0	0	0	0	0	0	0	0	0	0	0	0	0
3.15	0.99119	0.00881	0	0	0	0	0	0	0	0	0	0	0	0	0	0	0	0	0	0
3.2	0.99213	0.00787	0	0	0	0	0	0	0	0	0	0	0	0	0	0	0	0	0	0
3.25	0.99002	0.00998	0	0	0	0	0	0	0	0	0	0	0	0	0	0	0	0	0	0
3.3	0.98555	0.01445	0	0	0	0	0	0	0	0	0	0	0	0	0	0	0	0	0	0
3.35	0.97796	0.02204	0	0	0	0	0	0	0	0	0	0	0	0	0	0	0	0	0	0
3.4	0.96739	0.03261	0	0	0	0	0	0	0	0	0	0	0	0	0	0	0	0	0	0
3.45	0.97086	0.02914	0	0	0	0	0	0	0	0	0	0	0	0	0	0	0	0	0	0
3.5	0.97791	0.02209	0	0	0	0	0	0	0	0	0	0	0	0	0	0	0	0	0	0
3.55	0.9802	0.0198	0	0	0	0	0	0	0	0	0	0	0	0	0	0	0	0	0	0
3.6	0.97412	0.02588	0	0	0	0	0	0	0	0	0	0	0	0	0	0	0	0	0	0
3.65	0.97505	0.02495	0	0	0	0	0	0	0	0	0	0	0	0	0	0	0	0	0	0
3.7	0.97891	0.02109	0	0	0	0	0	0	0	0	0	0	0	0	0	0	0	0	0	0
3.75	0.978	0.022	0	0	0	0	0	0	0	0	0	0	0	0	0	0	0	0	0	0
3.8	0.9784	0.0216	0	0	0	0	0	0	0	0	0	0	0	0	0	0	0	0	0	0
3.85	0.976	0.024	0	0	0	0	0	0	0	0	0	0	0	0	0	0	0	0	0	0
3.9	0.97182	0.02818	0	0	0	0	0	0	0	0	0	0	0	0	0	0	0	0	0	0
3.95	0.9662	0.0338	0	0	0	0	0	0	0	0	0	0	0	0	0	0	0	0	0	0
4	0.95948	0.04052	0	0	0	0	0	0	0	0	0	0	0	0	0	0	0	0	0	0
4.05	0.95056	0.04944	0	0	0	0	0	0	0	0	0	0	0	0	0	0	0	0	0	0
4.1	0.94591	0.05409	0	0	0	0	0	0	0	0	0	0	0	0	0	0	0	0	0	0
4.15	0.94123	0.05877	0	0	0	0	0	0	0	0	0	0	0	0	0	0	0	0	0	0
4.2	0.93056	0.06944	0	0	0	0	0	0	0	0	0	0	0	0	0	0	0	0	0	0
4.25	0.91616	0.08384	0	0	0	0	0	0	0	0	0	0	0	0	0	0	0	0	0	0
4.3	0.90398	0.09602	0	0	0	0	0	0	0	0	0	0	0	0	0	0	0	0	0	0
4.35	0.89709	0.10291	0	0	0	0	0	0	0	0	0	0	0	0	0	0	0	0	0	0
4.4	0.89788	0.10212	0	0	0	0	0	0	0	0	0	0	0	0	0	0	0	0	0	0
4.45	0.89793	0.10207	0	0	0	0	0	0	0	0	0	0	0	0	0	0	0	0	0	0
4.5	0.89433	0.10567	0	0	0	0	0	0	0	0	0	0	0	0	0	0	0	0	0	0
4.55	0.88931	0.11069	0	0	0	0	0	0	0	0	0	0	0	0	0	0	0	0	0	0
4.6	0.88431	0.11568	1e-05	0	0	0	0	0	0	0	0	0	0	0	0	0	0	0	0	0
4.65	0.87852	0.12147	1e-05	0	0	0	0	0	0	0	0	0	0	0	0	0	0	0	0	0
4.7	0.86916	0.13084	0	0	0	0	0	0	0	0	0	0	0	0	0	0	0	0	0	0
4.75	0.86811	0.13187	2e-05	0	0	0	0	0	0	0	0	0	0	0	0	0	0	0	0	0
4.8	0.86501	0.13499	0	0	0	0	0	0	0	0	0	0	0	0	0	0	0	0	0	0
4.85	0.86638	0.13361	1e-05	0	0	0	0	0	0	0	0	0	0	0	0	0	0	0	0	0
4.9	0.85818	0.1418	2e-05	0	0	0	0	0	0	0	0	0	0	0	0	0	0	0	0	0
4.95	0.8503	0.14968	2e-05	0	0	0	0	0	0	0	0	0	0	0	0	0	0	0	0	0
5	0.84242	0.15755	3e-05	0	0	0	0	0	0	0	0	0	0	0	0	0	0	0	0	0
5.05	0.83488	0.16507	5e-05	0	0	0	0	0	0	0	0	0	0	0	0	0	0	0	0	0
5.1	0.82905	0.17086	9e-05	0	0	0	0	0	0	0	0	0	0	0	0	0	0	0	0	0
5.15	0.82243	0.17749	8e-05	0	0	0	0	0	0	0	0	0	0	0	0	0	0	0	0	0
5.2	0.81613	0.18374	0.00013	0	0	0	0	0	0	0	0	0	0	0	0	0	0	0	0	0
5.25	0.8125	0.1873	0.0002	0	0	0	0	0	0	0	0	0	0	0	0	0	0	0	0	0
5.3	0.80565	0.19421	0.00014	0	0	0	0	0	0	0	0	0	0	0	0	0	0	0	0	0
5.35	0.79804	0.20168	0.00028	0	0	0	0	0	0	0	0	0	0	0	0	0	0	0	0	0
5.4	0.79138	0.20829	0.00033	0	0	0	0	0	0	0	0	0	0	0	0	0	0	0	0	0
5.45	0.78379	0.21578	0.00043	0	0	0	0	0	0	0	0	0	0	0	0	0	0	0	0	0
5.5	0.77638	0.22325	0.00037	0	0	0	0	0	0	0	0	0	0	0	0	0	0	0	0	0
5.55	0.7661	0.23309	0.00081	0	0	0	0	0	0	0	0	0	0	0	0	0	0	0	0	0
5.6	0.75659	0.24272	0.00069	0	0	0	0	0	0	0	0	0	0	0	0	0	0	0	0	0
5.65	0.75152	0.24742	0.00106	0	0	0	0	0	0	0	0	0	0	0	0	0	0	0	0	0
5.7	0.73972	0.25941	0.00087	0	0	0	0	0	0	0	0	0	0	0	0	0	0	0	0	0
5.75	0.73049	0.26825	0.00126	0	0	0	0	0	0	0	0	0	0	0	0	0	0	0	0	0
5.8	0.72426	0.27415	0.00159	0	0	0	0	0	0	0	0	0	0	0	0	0	0	0	0	0
5.85	0.71129	0.28682	0.00189	0	0	0	0	0	0	0	0	0	0	0	0	0	0	0	0	0
5.9	0.69909	0.29861	0.0023	0	0	0	0	0	0	0	0	0	0	0	0	0	0	0	0	0
5.95	0.68933	0.30796	0.00271	0	0	0	0	0	0	0	0	0	0	0	0	0	0	0	0	0
6	0.66584	0.33046	0.0037	0	0	0	0	0	0	0	0	0	0	0	0	0	0	0	0	0
6.05	0.64705	0.34897	0.00398	0	0	0	0	0	0	0	0	0	0	0	0	0	0	0	0	0
6.1	0.62327	0.3719	0.00483	0	0	0	0	0	0	0	0	0	0	0	0	0	0	0	0	0
6.15	0.61215	0.38234	0.00551	0	0	0	0	0	0	0	0	0	0	0	0	0	0	0	0	0
6.2	0.60022	0.39323	0.00655	0	0	0	0	0	0	0	0	0	0	0	0	0	0	0	0	0
6.25	0.58461	0.40809	0.0073	0	0	0	0	0	0	0	0	0	0	0	0	0	0	0	0	0
6.3	0.5679	0.42344	0.00866	0	0	0	0	0	0	0	0	0	0	0	0	0	0	0	0	0
6.35	0.55213	0.43761	0.01026	0	0	0	0	0	0	0	0	0	0	0	0	0	0	0	0	0
6.4	0.52953	0.45895	0.01152	0	0	0	0	0	0	0	0	0	0	0	0	0	0	0	0	0
6.45	0.50953	0.47808	0.01238	1e-05	0	0	0	0	0	0	0	0	0	0	0	0	0	0	0	0
6.5	0.48697	0.49843	0.0146	0	0	0	0	0	0	0	0	0	0	0	0	0	0	0	0	0
6.55	0.4655	0.51798	0.01652	0	0	0	0	0	0	0	0	0	0	0	0	0	0	0	0	0
6.6	0.44575	0.53485	0.0194	0	0	0	0	0	0	0	0	0	0	0	0	0	0	0	0	0
6.65	0.43358	0.54565	0.02076	1e-05	0	0	0	0	0	0	0	0	0	0	0	0	0	0	0	0
6.7	0.41429	0.56164	0.02406	1e-05	0	0	0	0	0	0	0	0	0	0	0	0	0	0	0	0
6.75	0.39866	0.57532	0.02601	1e-05	0	0	0	0	0	0	0	0	0	0	0	0	0	0	0	0
6.8	0.3837	0.58552	0.03078	0	0	0	0	0	0	0	0	0	0	0	0	0	0	0	0	0
6.85	0.36804	0.59892	0.03303	1e-05	0	0	0	0	0	0	0	0	0	0	0	0	0	0	0	0
6.9	0.3499	0.61272	0.03738	0	0	0	0	0	0	0	0	0	0	0	0	0	0	0	0	0
6.95	0.35077	0.60566	0.04357	0	0	0	0	0	0	0	0	0	0	0	0	0	0	0	0	0
7	0.34601	0.60477	0.0492	2e-05	0	0	0	0	0	0	0	0	0	0	0	0	0	0	0	0
7.05	0.33484	0.6089	0.05624	2e-05	0	0	0	0	0	0	0	0	0	0	0	0	0	0	0	0
7.1	0.32829	0.60895	0.06273	3e-05	0	0	0	0	0	0	0	0	0	0	0	0	0	0	0	0
7.15	0.31753	0.61033	0.07212	2e-05	0	0	0	0	0	0	0	0	0	0	0	0	0	0	0	0
7.2	0.30296	0.61717	0.07986	1e-05	0	0	0	0	0	0	0	0	0	0	0	0	0	0	0	0
7.25	0.28626	0.62953	0.08416	5e-05	0	0	0	0	0	0	0	0	0	0	0	0	0	0	0	0
7.3	0.26404	0.64439	0.09155	2e-05	0	0	0	0	0	0	0	0	0	0	0	0	0	0	0	0
7.35	0.233	0.67086	0.09607	7e-05	0	0	0	0	0	0	0	0	0	0	0	0	0	0	0	0
7.4	0.20181	0.69995	0.09817	7e-05	0	0	0	0	0	0	0	0	0	0	0	0	0	0	0	0
7.45	0.16626	0.73738	0.09627	9e-05	0	0	0	0	0	0	0	0	0	0	0	0	0	0	0	0
7.5	0.12652	0.77493	0.09847	8e-05	0	0	0	0	0	0	0	0	0	0	0	0	0	0	0	0
7.55	0.07857	0.80832	0.11292	0.00019	0	0	0	0	0	0	0	0	0	0	0	0	0	0	0	0
7.6	0.06591	0.80514	0.12865	0.0003	0	0	0	0	0	0	0	0	0	0	0	0	0	0	0	0
7.65	0.05185	0.80267	0.1451	0.00038	0	0	0	0	0	0	0	0	0	0	0	0	0	0	0	0
7.7	0.04009	0.78399	0.17522	0.0007	0	0	0	0	0	0	0	0	0	0	0	0	0	0	0	0
7.75	0.02918	0.76067	0.20924	0.00091	0	0	0	0	0	0	0	0	0	0	0	0	0	0	0	0
7.8	0.02692	0.74915	0.2228	0.00113	0	0	0	0	0	0	0	0	0	0	0	0	0	0	0	0
7.85	0.02328	0.74246	0.23293	0.00133	0	0	0	0	0	0	0	0	0	0	0	0	0	0	0	0
7.9	0.02131	0.73234	0.24488	0.00147	0	0	0	0	0	0	0	0	0	0	0	0	0	0	0	0
7.95	0.01757	0.71822	0.26217	0.00204	0	0	0	0	0	0	0	0	0	0	0	0	0	0	0	0
8	0.01633	0.70929	0.27184	0.00254	0	0	0	0	0	0	0	0	0	0	0	0	0	0	0	0
8.05	0.01469	0.69812	0.28435	0.00284	0	0	0	0	0	0	0	0	0	0	0	0	0	0	0	0
8.1	0.01301	0.68395	0.3	0.00304	0	0	0	0	0	0	0	0	0	0	0	0	0	0	0	0
8.15	0.01121	0.66905	0.31623	0.00351	0	0	0	0	0	0	0	0	0	0	0	0	0	0	0	0
8.2	0.01001	0.65849	0.32735	0.00414	1e-05	0	0	0	0	0	0	0	0	0	0	0	0	0	0	0
8.25	0.00838	0.64364	0.34282	0.00516	0	0	0	0	0	0	0	0	0	0	0	0	0	0	0	0
8.3	0.0071	0.63108	0.35651	0.00531	0	0	0	0	0	0	0	0	0	0	0	0	0	0	0	0
8.35	0.00613	0.62125	0.36621	0.00641	0	0	0	0	0	0	0	0	0	0	0	0	0	0	0	0
8.4	0.00597	0.60881	0.37865	0.00657	0	0	0	0	0	0	0	0	0	0	0	0	0	0	0	0
8.45	0.00495	0.59607	0.39104	0.00794	0	0	0	0	0	0	0	0	0	0	0	0	0	0	0	0
8.5	0.00449	0.58533	0.40114	0.00904	0	0	0	0	0	0	0	0	0	0	0	0	0	0	0	0
8.55	0.00387	0.57395	0.41273	0.00945	0	0	0	0	0	0	0	0	0	0	0	0	0	0	0	0
8.6	0.00344	0.56163	0.42497	0.00996	0	0	0	0	0	0	0	0	0	0	0	0	0	0	0	0
8.65	0.00316	0.55036	0.43497	0.01151	0	0	0	0	0	0	0	0	0	0	0	0	0	0	0	0
8.7	0.00239	0.54084	0.44364	0.01313	0	0	0	0	0	0	0	0	0	0	0	0	0	0	0	0
8.75	0.002	0.52995	0.45468	0.01337	0	0	0	0	0	0	0	0	0	0	0	0	0	0	0	0
8.8	0.00192	0.5202	0.46292	0.01496	0	0	0	0	0	0	0	0	0	0	0	0	0	0	0	0
8.85	0.00171	0.50982	0.4729	0.01556	1e-05	0	0	0	0	0	0	0	0	0	0	0	0	0	0	0
8.9	0.00114	0.49571	0.48529	0.01786	0	0	0	0	0	0	0	0	0	0	0	0	0	0	0	0
8.95	0.00136	0.48579	0.49372	0.01911	2e-05	0	0	0	0	0	0	0	0	0	0	0	0	0	0	0
9	0.00109	0.47882	0.49879	0.02128	2e-05	0	0	0	0	0	0	0	0	0	0	0	0	0	0	0
9.05	0.00092	0.46609	0.50898	0.02399	2e-05	0	0	0	0	0	0	0	0	0	0	0	0	0	0	0
9.1	0.00069	0.45654	0.51814	0.02462	1e-05	0	0	0	0	0	0	0	0	0	0	0	0	0	0	0
9.15	0.00065	0.44639	0.52702	0.0259	4e-05	0	0	0	0	0	0	0	0	0	0	0	0	0	0	0
9.2	0.00046	0.43561	0.53586	0.02803	4e-05	0	0	0	0	0	0	0	0	0	0	0	0	0	0	0
9.25	0.0004	0.42601	0.5431	0.03046	3e-05	0	0	0	0	0	0	0	0	0	0	0	0	0	0	0
9.3	0.00044	0.41274	0.55436	0.03238	8e-05	0	0	0	0	0	0	0	0	0	0	0	0	0	0	0
9.35	0.00037	0.40002	0.56455	0.035	6e-05	0	0	0	0	0	0	0	0	0	0	0	0	0	0	0
9.4	0.00028	0.39727	0.56553	0.03685	7e-05	0	0	0	0	0	0	0	0	0	0	0	0	0	0	0
9.45	0.00018	0.38355	0.57634	0.03986	7e-05	0	0	0	0	0	0	0	0	0	0	0	0	0	0	0
9.5	0.00016	0.37565	0.58109	0.04298	0.00012	0	0	0	0	0	0	0	0	0	0	0	0	0	0	0
9.55	8e-05	0.36418	0.58877	0.04686	0.00011	0	0	0	0	0	0	0	0	0	0	0	0	0	0	0
9.6	0.00015	0.35439	0.59536	0.04995	0.00015	0	0	0	0	0	0	0	0	0	0	0	0	0	0	0
9.65	8e-05	0.34835	0.59876	0.05266	0.00015	0	0	0	0	0	0	0	0	0	0	0	0	0	0	0
9.7	0.00013	0.33374	0.60967	0.05631	0.00015	0	0	0	0	0	0	0	0	0	0	0	0	0	0	0
9.75	3e-05	0.32569	0.61504	0.05907	0.00017	0	0	0	0	0	0	0	0	0	0	0	0	0	0	0
9.8	0	0.31816	0.61913	0.06249	0.00022	0	0	0	0	0	0	0	0	0	0	0	0	0	0	0
9.85	9e-05	0.30704	0.62672	0.06591	0.00024	0	0	0	0	0	0	0	0	0	0	0	0	0	0	0
9.9	5e-05	0.30137	0.62703	0.07118	0.00037	0	0	0	0	0	0	0	0	0	0	0	0	0	0	0
9.95	2e-05	0.29114	0.6332	0.07531	0.00033	0	0	0	0	0	0	0	0	0	0	0	0	0	0	0
10	0	0.28516	0.63786	0.07666	0.00032	0	0	0	0	0	0	0	0	0	0	0	0	0	0	0
10.05	1e-05	0.27367	0.64232	0.08364	0.00036	0	0	0	0	0	0	0	0	0	0	0	0	0	0	0
10.1	0	0.26362	0.64885	0.08691	0.00062	0	0	0	0	0	0	0	0	0	0	0	0	0	0	0
10.15	1e-05	0.25824	0.64736	0.09385	0.00054	0	0	0	0	0	0	0	0	0	0	0	0	0	0	0
10.2	2e-05	0.25126	0.65174	0.09639	0.00059	0	0	0	0	0	0	0	0	0	0	0	0	0	0	0
10.25	0	0.24121	0.65491	0.10317	0.00071	0	0	0	0	0	0	0	0	0	0	0	0	0	0	0
10.3	1e-05	0.23463	0.65729	0.10707	0.001	0	0	0	0	0	0	0	0	0	0	0	0	0	0	0
10.35	1e-05	0.22838	0.65916	0.1116	0.00085	0	0	0	0	0	0	0	0	0	0	0	0	0	0	0
10.4	1e-05	0.21882	0.66498	0.11524	0.00095	0	0	0	0	0	0	0	0	0	0	0	0	0	0	0
10.45	0	0.2141	0.66373	0.12115	0.00102	0	0	0	0	0	0	0	0	0	0	0	0	0	0	0
10.5	0	0.20591	0.66393	0.12882	0.00134	0	0	0	0	0	0	0	0	0	0	0	0	0	0	0
10.55	0	0.20015	0.66439	0.13389	0.00157	0	0	0	0	0	0	0	0	0	0	0	0	0	0	0
10.6	0	0.19203	0.66561	0.14083	0.00153	0	0	0	0	0	0	0	0	0	0	0	0	0	0	0
10.65	0	0.18478	0.66822	0.14535	0.00165	0	0	0	0	0	0	0	0	0	0	0	0	0	0	0
10.7	0	0.1804	0.66455	0.15306	0.00199	0	0	0	0	0	0	0	0	0	0	0	0	0	0	0
10.75	0	0.17384	0.66628	0.15802	0.00186	0	0	0	0	0	0	0	0	0	0	0	0	0	0	0
10.8	0	0.16749	0.66585	0.16421	0.00245	0	0	0	0	0	0	0	0	0	0	0	0	0	0	0
10.85	0	0.16234	0.66419	0.17119	0.00228	0	0	0	0	0	0	0	0	0	0	0	0	0	0	0
10.9	0	0.15507	0.666	0.17624	0.00269	0	0	0	0	0	0	0	0	0	0	0	0	0	0	0
10.95	0	0.14954	0.66329	0.18411	0.00306	0	0	0	0	0	0	0	0	0	0	0	0	0	0	0
11	0	0.14476	0.66182	0.18994	0.00347	1e-05	0	0	0	0	0	0	0	0	0	0	0	0	0	0
11.05	0	0.1395	0.65834	0.19825	0.00391	0	0	0	0	0	0	0	0	0	0	0	0	0	0	0
11.1	0	0.13326	0.65781	0.20469	0.00423	1e-05	0	0	0	0	0	0	0	0	0	0	0	0	0	0
11.15	0	0.12751	0.65606	0.21228	0.00414	1e-05	0	0	0	0	0	0	0	0	0	0	0	0	0	0
11.2	0	0.12224	0.65505	0.21758	0.00513	0	0	0	0	0	0	0	0	0	0	0	0	0	0	0
11.25	0	0.11946	0.65005	0.22523	0.00526	0	0	0	0	0	0	0	0	0	0	0	0	0	0	0
11.3	0	0.1123	0.64862	0.23322	0.00585	1e-05	0	0	0	0	0	0	0	0	0	0	0	0	0	0
11.35	0	0.11052	0.64109	0.24197	0.00642	0	0	0	0	0	0	0	0	0	0	0	0	0	0	0
11.4	0	0.10558	0.639	0.24815	0.00727	0	0	0	0	0	0	0	0	0	0	0	0	0	0	0
11.45	0	0.09954	0.63701	0.25528	0.00816	1e-05	0	0	0	0	0	0	0	0	0	0	0	0	0	0
11.5	0	0.09486	0.63221	0.26418	0.00872	3e-05	0	0	0	0	0	0	0	0	0	0	0	0	0	0
11.55	0	0.09225	0.62793	0.27139	0.00842	1e-05	0	0	0	0	0	0	0	0	0	0	0	0	0	0
11.6	0	0.08857	0.62202	0.27994	0.00946	1e-05	0	0	0	0	0	0	0	0	0	0	0	0	0	0
11.65	0	0.08617	0.6187	0.28429	0.01082	2e-05	0	0	0	0	0	0	0	0	0	0	0	0	0	0
11.7	0	0.0822	0.6137	0.2934	0.0107	0	0	0	0	0	0	0	0	0	0	0	0	0	0	0
11.75	0	0.07747	0.61107	0.29925	0.01217	4e-05	0	0	0	0	0	0	0	0	0	0	0	0	0	0
11.8	0	0.07453	0.60387	0.3086	0.01297	3e-05	0	0	0	0	0	0	0	0	0	0	0	0	0	0
11.85	0	0.07053	0.5981	0.31726	0.01411	0	0	0	0	0	0	0	0	0	0	0	0	0	0	0
11.9	0	0.06741	0.59203	0.32614	0.01438	4e-05	0	0	0	0	0	0	0	0	0	0	0	0	0	0
11.95	0	0.06416	0.58783	0.3323	0.01565	6e-05	0	0	0	0	0	0	0	0	0	0	0	0	0	0
12	0	0.06247	0.57928	0.34134	0.01685	6e-05	0	0	0	0	0	0	0	0	0	0	0	0	0	0
12.05	0	0.06	0.57467	0.3469	0.01837	6e-05	0	0	0	0	0	0	0	0	0	0	0	0	0	0
12.1	0	0.05683	0.56732	0.35592	0.01985	8e-05	0	0	0	0	0	0	0	0	0	0	0	0	0	0
12.15	0	0.05392	0.55936	0.3656	0.02103	9e-05	0	0	0	0	0	0	0	0	0	0	0	0	0	0
12.2	0	0.05138	0.55647	0.36995	0.02216	4e-05	0	0	0	0	0	0	0	0	0	0	0	0	0	0
12.25	0	0.04985	0.5495	0.37687	0.02365	0.00013	0	0	0	0	0	0	0	0	0	0	0	0	0	0
12.3	0	0.04624	0.54234	0.38685	0.02447	0.0001	0	0	0	0	0	0	0	0	0	0	0	0	0	0
12.35	0	0.04507	0.53738	0.38998	0.02745	0.00012	0	0	0	0	0	0	0	0	0	0	0	0	0	0
12.4	0	0.04223	0.52784	0.40162	0.02813	0.00018	0	0	0	0	0	0	0	0	0	0	0	0	0	0
12.45	0	0.0399	0.52018	0.40973	0.03006	0.00013	0	0	0	0	0	0	0	0	0	0	0	0	0	0
12.5	0	0.03792	0.51503	0.41486	0.03202	0.00017	0	0	0	0	0	0	0	0	0	0	0	0	0	0
12.55	0	0.03677	0.50725	0.42214	0.0336	0.00024	0	0	0	0	0	0	0	0	0	0	0	0	0	0
12.6	0	0.03495	0.49992	0.42973	0.03517	0.00023	0	0	0	0	0	0	0	0	0	0	0	0	0	0
12.65	0	0.03147	0.49465	0.43479	0.03883	0.00026	0	0	0	0	0	0	0	0	0	0	0	0	0	0
12.7	0	0.03068	0.48516	0.44342	0.0404	0.00034	0	0	0	0	0	0	0	0	0	0	0	0	0	0
12.75	0	0.02889	0.48166	0.44659	0.04245	0.00041	0	0	0	0	0	0	0	0	0	0	0	0	0	0
12.8	0	0.02774	0.47234	0.45386	0.04572	0.00034	0	0	0	0	0	0	0	0	0	0	0	0	0	0
12.85	0	0.02638	0.46047	0.46549	0.04722	0.00044	0	0	0	0	0	0	0	0	0	0	0	0	0	0
12.9	0	0.02493	0.45325	0.47124	0.05023	0.00035	0	0	0	0	0	0	0	0	0	0	0	0	0	0
12.95	0	0.0235	0.44894	0.47378	0.05328	0.0005	0	0	0	0	0	0	0	0	0	0	0	0	0	0
13	0	0.02292	0.44018	0.48114	0.05522	0.00054	0	0	0	0	0	0	0	0	0	0	0	0	0	0
13.05	0	0.0214	0.4345	0.48534	0.05821	0.00055	0	0	0	0	0	0	0	0	0	0	0	0	0	0
13.1	0	0.01894	0.42585	0.49191	0.06277	0.00053	0	0	0	0	0	0	0	0	0	0	0	0	0	0
13.15	0	0.01913	0.41674	0.49879	0.06461	0.00073	0	0	0	0	0	0	0	0	0	0	0	0	0	0
13.2	0	0.01798	0.41213	0.50202	0.067	0.00087	0	0	0	0	0	0	0	0	0	0	0	0	0	0
13.25	0	0.01573	0.40298	0.5096	0.07085	0.00083	1e-05	0	0	0	0	0	0	0	0	0	0	0	0	0
13.3	0	0.01526	0.39652	0.51473	0.07239	0.0011	0	0	0	0	0	0	0	0	0	0	0	0	0	0
13.35	0	0.01566	0.3887	0.51958	0.07503	0.00103	0	0	0	0	0	0	0	0	0	0	0	0	0	0
13.4	0	0.01349	0.38173	0.52568	0.07775	0.00135	0	0	0	0	0	0	0	0	0	0	0	0	0	0
13.45	0	0.01316	0.37541	0.52928	0.08094	0.00121	0	0	0	0	0	0	0	0	0	0	0	0	0	0
13.5	0	0.0119	0.36903	0.53304	0.08469	0.00134	0	0	0	0	0	0	0	0	0	0	0	0	0	0
13.55	0	0.01129	0.36173	0.53679	0.08883	0.00136	0	0	0	0	0	0	0	0	0	0	0	0	0	0
13.6	0	0.01063	0.35644	0.53917	0.09222	0.00153	1e-05	0	0	0	0	0	0	0	0	0	0	0	0	0
13.65	0	0.00977	0.34783	0.54486	0.09599	0.00154	1e-05	0	0	0	0	0	0	0	0	0	0	0	0	0
13.7	0	0.0098	0.34511	0.5466	0.09674	0.00175	0	0	0	0	0	0	0	0	0	0	0	0	0	0
13.75	0	0.00911	0.33721	0.55119	0.10073	0.00176	0	0	0	0	0	0	0	0	0	0	0	0	0	0
13.8	0	0.00872	0.32992	0.55443	0.10496	0.00197	0	0	0	0	0	0	0	0	0	0	0	0	0	0
13.85	0	0.00822	0.32528	0.55578	0.10872	0.002	0	0	0	0	0	0	0	0	0	0	0	0	0	0
13.9	0	0.00716	0.3182	0.55962	0.11266	0.00236	0	0	0	0	0	0	0	0	0	0	0	0	0	0
13.95	0	0.00698	0.31227	0.56257	0.11564	0.00254	0	0	0	0	0	0	0	0	0	0	0	0	0	0
14	0	0.00629	0.30345	0.56768	0.1199	0.00268	0	0	0	0	0	0	0	0	0	0	0	0	0	0
14.05	0	0.00577	0.29981	0.56828	0.12311	0.00303	0	0	0	0	0	0	0	0	0	0	0	0	0	0
14.1	0	0.00549	0.29454	0.56976	0.12711	0.0031	0	0	0	0	0	0	0	0	0	0	0	0	0	0
14.15	0	0.00529	0.28814	0.57281	0.1302	0.00356	0	0	0	0	0	0	0	0	0	0	0	0	0	0
14.2	0	0.00519	0.28158	0.57358	0.13595	0.0037	0	0	0	0	0	0	0	0	0	0	0	0	0	0
14.25	0	0.00466	0.27598	0.57657	0.13888	0.0039	1e-05	0	0	0	0	0	0	0	0	0	0	0	0	0
14.3	0	0.00416	0.26927	0.57892	0.14345	0.0042	0	0	0	0	0	0	0	0	0	0	0	0	0	0
14.35	0	0.0039	0.26417	0.57922	0.1483	0.00441	0	0	0	0	0	0	0	0	0	0	0	0	0	0
14.4	0	0.00357	0.26057	0.57783	0.15371	0.00432	0	0	0	0	0	0	0	0	0	0	0	0	0	0
14.45	0	0.0035	0.25422	0.58295	0.15421	0.00511	1e-05	0	0	0	0	0	0	0	0	0	0	0	0	0
14.5	0	0.00352	0.24863	0.58281	0.15925	0.00578	1e-05	0	0	0	0	0	0	0	0	0	0	0	0	0
14.55	0	0.00297	0.24292	0.5825	0.16554	0.00605	2e-05	0	0	0	0	0	0	0	0	0	0	0	0	0
14.6	0	0.00251	0.2361	0.58548	0.17002	0.00587	2e-05	0	0	0	0	0	0	0	0	0	0	0	0	0
14.65	0	0.00228	0.23686	0.58221	0.1719	0.00674	1e-05	0	0	0	0	0	0	0	0	0	0	0	0	0
14.7	0	0.00225	0.22849	0.58497	0.17715	0.00713	1e-05	0	0	0	0	0	0	0	0	0	0	0	0	0
14.75	0	0.00224	0.22448	0.58472	0.18143	0.00711	2e-05	0	0	0	0	0	0	0	0	0	0	0	0	0
14.8	0	0.00214	0.22219	0.58015	0.18698	0.00848	6e-05	0	0	0	0	0	0	0	0	0	0	0	0	0
14.85	0	0.00174	0.21487	0.58441	0.19001	0.00897	0	0	0	0	0	0	0	0	0	0	0	0	0	0
14.9	0	0.00184	0.20822	0.58566	0.19498	0.00925	5e-05	0	0	0	0	0	0	0	0	0	0	0	0	0
14.95	0	0.00168	0.20597	0.58179	0.20079	0.00968	9e-05	0	0	0	0	0	0	0	0	0	0	0	0	0
15	0	0.00164	0.20075	0.58301	0.20448	0.01008	4e-05	0	0	0	0	0	0	0	0	0	0	0	0	0
15.05	0	0.00136	0.19929	0.58153	0.20748	0.01029	5e-05	0	0	0	0	0	0	0	0	0	0	0	0	0
15.1	0	0.00123	0.19249	0.57691	0.21789	0.01138	0.0001	0	0	0	0	0	0	0	0	0	0	0	0	0
15.15	0	0.00124	0.18815	0.5763	0.22229	0.01191	0.00011	0	0	0	0	0	0	0	0	0	0	0	0	0
15.2	0	0.00106	0.18568	0.57641	0.22348	0.01332	5e-05	0	0	0	0	0	0	0	0	0	0	0	0	0
15.25	0	0.00096	0.18088	0.57479	0.22864	0.01458	0.00015	0	0	0	0	0	0	0	0	0	0	0	0	0
15.3	0	0.00089	0.17622	0.57083	0.23649	0.01546	0.00011	0	0	0	0	0	0	0	0	0	0	0	0	0
15.35	0	0.00078	0.17176	0.56916	0.24235	0.01583	0.00012	0	0	0	0	0	0	0	0	0	0	0	0	0
15.4	0	0.00084	0.16934	0.56702	0.24575	0.01686	0.00019	0	0	0	0	0	0	0	0	0	0	0	0	0
15.45	0	0.00076	0.16678	0.56375	0.24983	0.01867	0.00021	0	0	0	0	0	0	0	0	0	0	0	0	0
15.5	0	0.00076	0.16065	0.56251	0.25608	0.01988	0.00012	0	0	0	0	0	0	0	0	0	0	0	0	0
15.55	0	0.00061	0.15622	0.55976	0.26198	0.02121	0.00022	0	0	0	0	0	0	0	0	0	0	0	0	0
15.6	0	0.00057	0.15279	0.55103	0.2718	0.02352	0.00029	0	0	0	0	0	0	0	0	0	0	0	0	0
15.65	0	0.00055	0.14742	0.55038	0.27701	0.02437	0.00027	0	0	0	0	0	0	0	0	0	0	0	0	0
15.7	0	0.00047	0.14371	0.54585	0.2842	0.02545	0.00032	0	0	0	0	0	0	0	0	0	0	0	0	0
15.75	0	0.00044	0.14179	0.54045	0.28933	0.0277	0.00029	0	0	0	0	0	0	0	0	0	0	0	0	0
15.8	0	0.0005	0.13781	0.53558	0.2955	0.03019	0.00042	0	0	0	0	0	0	0	0	0	0	0	0	0
15.85	0	0.00044	0.13144	0.53005	0.30561	0.032	0.00046	0	0	0	0	0	0	0	0	0	0	0	0	0
15.9	0	0.00048	0.12943	0.52368	0.31334	0.03251	0.00056	0	0	0	0	0	0	0	0	0	0	0	0	0
15.95	0	0.00043	0.12237	0.52169	0.31925	0.03573	0.00053	0	0	0	0	0	0	0	0	0	0	0	0	0
16	0	0.00034	0.11928	0.51585	0.32646	0.03748	0.00059	0	0	0	0	0	0	0	0	0	0	0	0	0
16.05	0	0.00024	0.11484	0.51078	0.33294	0.04062	0.00058	0	0	0	0	0	0	0	0	0	0	0	0	0
16.1	0	0.00031	0.11107	0.50346	0.34151	0.04291	0.00074	0	0	0	0	0	0	0	0	0	0	0	0	0
16.15	0	0.00027	0.10572	0.49789	0.35062	0.04468	0.00082	0	0	0	0	0	0	0	0	0	0	0	0	0
16.2	0	0.00024	0.10093	0.49013	0.36197	0.04572	0.00101	0	0	0	0	0	0	0	0	0	0	0	0	0
16.25	0	0.00024	0.09765	0.4842	0.36641	0.05059	0.00091	0	0	0	0	0	0	0	0	0	0	0	0	0
16.3	0	0.0002	0.09316	0.47581	0.37527	0.05451	0.00105	0	0	0	0	0	0	0	0	0	0	0	0	0
16.35	0	0.0002	0.08898	0.46889	0.38511	0.05581	0.00101	0	0	0	0	0	0	0	0	0	0	0	0	0
16.4	0	0.00017	0.08605	0.46113	0.39247	0.05895	0.00123	0	0	0	0	0	0	0	0	0	0	0	0	0
16.45	0	0.00017	0.08036	0.45499	0.40154	0.06182	0.00112	0	0	0	0	0	0	0	0	0	0	0	0	0
16.5	0	0.00019	0.07682	0.44716	0.40874	0.06585	0.00124	0	0	0	0	0	0	0	0	0	0	0	0	0
16.55	0	0.00019	0.07204	0.43896	0.41937	0.06785	0.00159	0	0	0	0	0	0	0	0	0	0	0	0	0
16.6	0	0.00013	0.06809	0.4323	0.428	0.06979	0.00169	0	0	0	0	0	0	0	0	0	0	0	0	0
16.65	0	0.00013	0.06368	0.42606	0.43625	0.0722	0.00168	0	0	0	0	0	0	0	0	0	0	0	0	0
16.7	0	7e-05	0.06197	0.41503	0.44314	0.07779	0.00199	1e-05	0	0	0	0	0	0	0	0	0	0	0	0
16.75	0	0.0001	0.05705	0.40698	0.45241	0.08159	0.00186	1e-05	0	0	0	0	0	0	0	0	0	0	0	0
16.8	0	0.00013	0.05269	0.40171	0.45882	0.08433	0.00232	0	0	0	0	0	0	0	0	0	0	0	0	0
16.85	0	7e-05	0.05057	0.39754	0.46311	0.08641	0.00229	1e-05	0	0	0	0	0	0	0	0	0	0	0	0
16.9	0	6e-05	0.04637	0.38756	0.4733	0.09037	0.00232	2e-05	0	0	0	0	0	0	0	0	0	0	0	0
16.95	0	1e-05	0.04341	0.38209	0.47788	0.09393	0.00268	0	0	0	0	0	0	0	0	0	0	0	0	0
17	0	9e-05	0.04031	0.37509	0.48584	0.09603	0.00263	1e-05	0	0	0	0	0	0	0	0	0	0	0	0
17.05	0	5e-05	0.03652	0.36694	0.492	0.10152	0.00295	2e-05	0	0	0	0	0	0	0	0	0	0	0	0
17.1	0	9e-05	0.03403	0.36249	0.49599	0.1043	0.0031	0	0	0	0	0	0	0	0	0	0	0	0	0
17.15	0	4e-05	0.03309	0.35543	0.501	0.10697	0.00346	1e-05	0	0	0	0	0	0	0	0	0	0	0	0
17.2	0	1e-05	0.02976	0.35043	0.50406	0.11212	0.00362	0	0	0	0	0	0	0	0	0	0	0	0	0
17.25	0	1e-05	0.02782	0.34257	0.51317	0.11271	0.00372	0	0	0	0	0	0	0	0	0	0	0	0	0
17.3	0	1e-05	0.02672	0.33773	0.51527	0.11605	0.00421	1e-05	0	0	0	0	0	0	0	0	0	0	0	0
17.35	0	0	0.02444	0.33485	0.51653	0.12011	0.00405	2e-05	0	0	0	0	0	0	0	0	0	0	0	0
17.4	0	1e-05	0.02226	0.32871	0.52218	0.12187	0.00495	2e-05	0	0	0	0	0	0	0	0	0	0	0	0
17.45	0	0	0.02134	0.32408	0.52626	0.12343	0.00485	4e-05	0	0	0	0	0	0	0	0	0	0	0	0
17.5	0	1e-05	0.02027	0.31693	0.52859	0.12868	0.00548	4e-05	0	0	0	0	0	0	0	0	0	0	0	0
17.55	0	1e-05	0.01947	0.31271	0.53191	0.13039	0.00543	8e-05	0	0	0	0	0	0	0	0	0	0	0	0
17.6	0	0	0.01853	0.30943	0.53153	0.13426	0.00619	6e-05	0	0	0	0	0	0	0	0	0	0	0	0
17.65	0	0	0.01622	0.3022	0.53549	0.13964	0.00637	8e-05	0	0	0	0	0	0	0	0	0	0	0	0
17.7	0	1e-05	0.01568	0.29989	0.53497	0.14242	0.00695	8e-05	0	0	0	0	0	0	0	0	0	0	0	0
17.75	0	1e-05	0.01441	0.29487	0.5368	0.14686	0.00702	3e-05	0	0	0	0	0	0	0	0	0	0	0	0
17.8	0	1e-05	0.01404	0.2917	0.53886	0.1475	0.00785	4e-05	0	0	0	0	0	0	0	0	0	0	0	0
17.85	0	0	0.01316	0.28592	0.54096	0.1519	0.008	6e-05	0	0	0	0	0	0	0	0	0	0	0	0
17.9	0	1e-05	0.01299	0.27961	0.54289	0.15551	0.0089	9e-05	0	0	0	0	0	0	0	0	0	0	0	0
17.95	0	0	0.01161	0.27752	0.53743	0.16364	0.00972	8e-05	0	0	0	0	0	0	0	0	0	0	0	0
18	0	0	0.01135	0.2727	0.54237	0.16326	0.01021	0.00011	0	0	0	0	0	0	0	0	0	0	0	0
18.05	0	0	0.01082	0.26671	0.54618	0.16565	0.01056	8e-05	0	0	0	0	0	0	0	0	0	0	0	0
18.1	0	0	0.01145	0.26617	0.54025	0.17091	0.01105	0.00017	0	0	0	0	0	0	0	0	0	0	0	0
18.15	0	0	0.00958	0.26	0.54335	0.17448	0.01248	0.00011	0	0	0	0	0	0	0	0	0	0	0	0
18.2	0	0	0.00948	0.25251	0.54547	0.17952	0.01279	0.00023	0	0	0	0	0	0	0	0	0	0	0	0
18.25	0	0	0.00919	0.25177	0.54004	0.18577	0.01303	0.0002	0	0	0	0	0	0	0	0	0	0	0	0
18.3	0	0	0.00856	0.24874	0.54186	0.18607	0.01455	0.00022	0	0	0	0	0	0	0	0	0	0	0	0
18.35	0	0	0.00797	0.24182	0.54096	0.19406	0.01497	0.00022	0	0	0	0	0	0	0	0	0	0	0	0
18.4	0	0	0.00748	0.23884	0.54185	0.1955	0.01613	0.0002	0	0	0	0	0	0	0	0	0	0	0	0
18.45	0	0	0.0074	0.23378	0.53984	0.20216	0.01661	0.0002	1e-05	0	0	0	0	0	0	0	0	0	0	0
18.5	0	0	0.00638	0.22977	0.54008	0.2057	0.01788	0.00019	0	0	0	0	0	0	0	0	0	0	0	0
18.55	0	0	0.00616	0.22602	0.53765	0.21045	0.01946	0.00026	0	0	0	0	0	0	0	0	0	0	0	0
18.6	0	0	0.00628	0.22434	0.53446	0.21479	0.01983	0.0003	0	0	0	0	0	0	0	0	0	0	0	0
18.65	0	0	0.00621	0.21811	0.53359	0.22045	0.02137	0.00027	0	0	0	0	0	0	0	0	0	0	0	0
18.7	0	0	0.00541	0.21184	0.53339	0.2272	0.02176	0.0004	0	0	0	0	0	0	0	0	0	0	0	0
18.75	0	0	0.00511	0.21068	0.53055	0.22933	0.02389	0.00044	0	0	0	0	0	0	0	0	0	0	0	0
18.8	0	0	0.00499	0.20762	0.52964	0.23289	0.02444	0.00042	0	0	0	0	0	0	0	0	0	0	0	0
18.85	0	0	0.00468	0.20291	0.52668	0.23895	0.02628	0.0005	0	0	0	0	0	0	0	0	0	0	0	0
18.9	0	0	0.00495	0.1975	0.5242	0.24566	0.02723	0.00046	0	0	0	0	0	0	0	0	0	0	0	0
18.95	0	0	0.0044	0.19467	0.52221	0.24952	0.0286	0.0006	0	0	0	0	0	0	0	0	0	0	0	0
19	0	0	0.00395	0.19129	0.51969	0.25458	0.02988	0.00061	0	0	0	0	0	0	0	0	0	0	0	0
19.05	0	0	0.0041	0.18613	0.51702	0.26116	0.03098	0.00061	0	0	0	0	0	0	0	0	0	0	0	0
19.1	0	0	0.00343	0.18361	0.51403	0.26537	0.03288	0.00068	0	0	0	0	0	0	0	0	0	0	0	0
19.15	0	0	0.00338	0.18107	0.51263	0.26829	0.03372	0.00091	0	0	0	0	0	0	0	0	0	0	0	0
19.2	0	0	0.0033	0.1748	0.50806	0.27693	0.03609	0.00082	0	0	0	0	0	0	0	0	0	0	0	0
19.25	0	0	0.00319	0.17239	0.50459	0.28186	0.03693	0.00104	0	0	0	0	0	0	0	0	0	0	0	0
19.3	0	0	0.00326	0.16864	0.49966	0.28858	0.03879	0.00107	0	0	0	0	0	0	0	0	0	0	0	0
19.35	0	0	0.00293	0.16637	0.4972	0.29223	0.04035	0.00092	0	0	0	0	0	0	0	0	0	0	0	0
19.4	0	0	0.00266	0.16027	0.49579	0.29716	0.04287	0.00123	2e-05	0	0	0	0	0	0	0	0	0	0	0
19.45	0	0	0.00234	0.15843	0.49063	0.30327	0.04406	0.00127	0	0	0	0	0	0	0	0	0	0	0	0
19.5	0	0	0.00246	0.15434	0.49031	0.30606	0.04562	0.0012	1e-05	0	0	0	0	0	0	0	0	0	0	0
19.55	0	0	0.0022	0.14843	0.48469	0.31523	0.04817	0.00128	0	0	0	0	0	0	0	0	0	0	0	0
19.6	0	0	0.00217	0.14748	0.48058	0.31822	0.05019	0.00136	0	0	0	0	0	0	0	0	0	0	0	0
19.65	0	0	0.00197	0.14199	0.48027	0.32401	0.05024	0.0015	2e-05	0	0	0	0	0	0	0	0	0	0	0
19.7	0	0	0.00213	0.13846	0.47479	0.33009	0.0528	0.00172	1e-05	0	0	0	0	0	0	0	0	0	0	0
19.75	0	0	0.00187	0.13704	0.46759	0.33651	0.05539	0.00159	1e-05	0	0	0	0	0	0	0	0	0	0	0
19.8	0	0	0.00166	0.13299	0.46436	0.34138	0.05792	0.00169	0	0	0	0	0	0	0	0	0	0	0	0
19.85	0	0	0.00143	0.12861	0.46327	0.34544	0.05913	0.0021	2e-05	0	0	0	0	0	0	0	0	0	0	0
19.9	0	0	0.00161	0.1273	0.45721	0.34955	0.06236	0.00196	1e-05	0	0	0	0	0	0	0	0	0	0	0
19.95	0	0	0.00134	0.12277	0.4557	0.35572	0.06233	0.00213	1e-05	0	0	0	0	0	0	0	0	0	0	0
20	0	0	0.00143	0.11994	0.44863	0.35918	0.06829	0.00251	2e-05	0	0	0	0	0	0	0	0	0	0	0
20.05	0	0	0.00114	0.11704	0.44239	0.36842	0.06842	0.00256	3e-05	0	0	0	0	0	0	0	0	0	0	0
20.1	0	0	0.0011	0.11274	0.44231	0.37117	0.06988	0.0028	0	0	0	0	0	0	0	0	0	0	0	0
20.15	0	0	0.001	0.10929	0.43884	0.3766	0.07164	0.00258	5e-05	0	0	0	0	0	0	0	0	0	0	0
20.2	0	0	0.00115	0.10679	0.42903	0.38447	0.07552	0.00299	5e-05	0	0	0	0	0	0	0	0	0	0	0
20.25	0	0	0.0012	0.10518	0.42434	0.3873	0.07868	0.00326	4e-05	0	0	0	0	0	0	0	0	0	0	0
20.3	0	0	0.00088	0.10114	0.42458	0.39045	0.07947	0.00344	4e-05	0	0	0	0	0	0	0	0	0	0	0
20.35	0	0	0.00088	0.09908	0.41857	0.39409	0.08335	0.00395	8e-05	0	0	0	0	0	0	0	0	0	0	0
20.4	0	0	0.00105	0.09387	0.413	0.40135	0.08676	0.00396	1e-05	0	0	0	0	0	0	0	0	0	0	0
20.45	0	0	0.00088	0.09071	0.40979	0.40612	0.08825	0.00422	3e-05	0	0	0	0	0	0	0	0	0	0	0
20.5	0	0	0.00083	0.08876	0.4048	0.40915	0.09181	0.00459	6e-05	0	0	0	0	0	0	0	0	0	0	0
20.55	0	0	0.00065	0.08727	0.40326	0.40983	0.09429	0.00465	5e-05	0	0	0	0	0	0	0	0	0	0	0
20.6	0	0	0.0008	0.08387	0.39799	0.4143	0.09791	0.00506	7e-05	0	0	0	0	0	0	0	0	0	0	0
20.65	0	0	0.00068	0.08061	0.39159	0.42185	0.09977	0.00539	0.00011	0	0	0	0	0	0	0	0	0	0	0
20.7	0	0	0.00048	0.07919	0.38414	0.42631	0.10413	0.00571	4e-05	0	0	0	0	0	0	0	0	0	0	0
20.75	0	0	0.00062	0.07602	0.38391	0.42887	0.10484	0.00567	7e-05	0	0	0	0	0	0	0	0	0	0	0
20.8	0	0	0.00047	0.07623	0.37836	0.43101	0.10759	0.00627	7e-05	0	0	0	0	0	0	0	0	0	0	0
20.85	0	0	0.00055	0.07198	0.37367	0.43609	0.11058	0.00707	6e-05	0	0	0	0	0	0	0	0	0	0	0
20.9	0	0	0.00048	0.06853	0.36902	0.44044	0.11413	0.00728	0.00012	0	0	0	0	0	0	0	0	0	0	0
20.95	0	0	0.00054	0.06779	0.36225	0.4439	0.11789	0.00755	8e-05	0	0	0	0	0	0	0	0	0	0	0
21	0	0	0.00033	0.06498	0.36029	0.44409	0.12199	0.00822	0.0001	0	0	0	0	0	0	0	0	0	0	0
21.05	0	0	0.00035	0.06283	0.35048	0.45208	0.1254	0.00872	0.00014	0	0	0	0	0	0	0	0	0	0	0
21.1	0	0	0.00028	0.06016	0.35031	0.45337	0.12663	0.00913	0.00012	0	0	0	0	0	0	0	0	0	0	0
21.15	0	0	0.00029	0.05817	0.34571	0.45381	0.13225	0.00962	0.00015	0	0	0	0	0	0	0	0	0	0	0
21.2	0	0	0.00029	0.05783	0.33916	0.45818	0.13389	0.01047	0.00018	0	0	0	0	0	0	0	0	0	0	0
21.25	0	0	0.00026	0.0541	0.33375	0.46218	0.13858	0.01098	0.00015	0	0	0	0	0	0	0	0	0	0	0
21.3	0	0	0.0003	0.0527	0.32978	0.46368	0.142	0.01137	0.00017	0	0	0	0	0	0	0	0	0	0	0
21.35	0	0	0.00027	0.04903	0.32566	0.46967	0.14355	0.01164	0.00018	0	0	0	0	0	0	0	0	0	0	0
21.4	0	0	0.00018	0.04808	0.32023	0.46764	0.15073	0.0129	0.00024	0	0	0	0	0	0	0	0	0	0	0
21.45	0	0	0.00023	0.04606	0.31511	0.47004	0.15475	0.01359	0.00022	0	0	0	0	0	0	0	0	0	0	0
21.5	0	0	0.00021	0.04374	0.31196	0.47181	0.15826	0.01377	0.00024	1e-05	0	0	0	0	0	0	0	0	0	0
21.55	0	0	0.00019	0.04232	0.30528	0.47592	0.16115	0.01488	0.00026	0	0	0	0	0	0	0	0	0	0	0
21.6	0	0	0.00023	0.04069	0.30019	0.47792	0.16456	0.016	0.00041	0	0	0	0	0	0	0	0	0	0	0
21.65	0	0	0.00022	0.03913	0.29824	0.47889	0.16694	0.01621	0.00037	0	0	0	0	0	0	0	0	0	0	0
21.7	0	0	0.00017	0.03705	0.29459	0.47889	0.17215	0.01683	0.00032	0	0	0	0	0	0	0	0	0	0	0
21.75	0	0	0.00015	0.03656	0.28817	0.47905	0.17775	0.01796	0.00036	0	0	0	0	0	0	0	0	0	0	0
21.8	0	0	0.00018	0.03498	0.28074	0.48414	0.18064	0.01883	0.00049	0	0	0	0	0	0	0	0	0	0	0
21.85	0	0	9e-05	0.03401	0.27901	0.4802	0.18642	0.01996	0.00031	0	0	0	0	0	0	0	0	0	0	0
21.9	0	0	0.0001	0.03199	0.27285	0.48541	0.18902	0.02005	0.00058	0	0	0	0	0	0	0	0	0	0	0
21.95	0	0	0.00013	0.03069	0.26883	0.48438	0.19379	0.02168	0.0005	0	0	0	0	0	0	0	0	0	0	0
22	0	0	0.00011	0.02902	0.26641	0.4835	0.19747	0.02291	0.00058	0	0	0	0	0	0	0	0	0	0	0
22.05	0	0	8e-05	0.02787	0.26206	0.48251	0.20277	0.02407	0.00064	0	0	0	0	0	0	0	0	0	0	0
22.1	0	0	0.00013	0.02746	0.25698	0.48451	0.20633	0.024	0.00059	0	0	0	0	0	0	0	0	0	0	0
22.15	0	0	6e-05	0.0257	0.25024	0.48464	0.21214	0.02643	0.00079	0	0	0	0	0	0	0	0	0	0	0
22.2	0	0	6e-05	0.025	0.24845	0.48475	0.21472	0.02628	0.00074	0	0	0	0	0	0	0	0	0	0	0
22.25	0	0	7e-05	0.02334	0.24195	0.4865	0.21897	0.02851	0.00066	0	0	0	0	0	0	0	0	0	0	0
22.3	0	0	4e-05	0.02233	0.23632	0.48468	0.2254	0.03043	0.0008	0	0	0	0	0	0	0	0	0	0	0
22.35	0	0	9e-05	0.02113	0.23649	0.48327	0.22803	0.03009	0.0009	0	0	0	0	0	0	0	0	0	0	0
22.4	0	0	7e-05	0.02035	0.22794	0.48533	0.23355	0.03176	0.001	0	0	0	0	0	0	0	0	0	0	0
22.45	0	0	7e-05	0.01971	0.22597	0.48278	0.23607	0.03431	0.00109	0	0	0	0	0	0	0	0	0	0	0
22.5	0	0	6e-05	0.01908	0.22196	0.48243	0.2406	0.03464	0.00123	0	0	0	0	0	0	0	0	0	0	0
22.55	0	0	2e-05	0.01721	0.21766	0.47953	0.24824	0.03615	0.00118	1e-05	0	0	0	0	0	0	0	0	0	0
22.6	0	0	5e-05	0.01739	0.2119	0.48173	0.25058	0.03742	0.00093	0	0	0	0	0	0	0	0	0	0	0
22.65	0	0	2e-05	0.01648	0.21177	0.4734	0.25812	0.03869	0.00152	0	0	0	0	0	0	0	0	0	0	0
22.7	0	0	4e-05	0.01513	0.20473	0.47849	0.25977	0.04036	0.00147	1e-05	0	0	0	0	0	0	0	0	0	0
22.75	0	0	3e-05	0.01385	0.20155	0.47369	0.26859	0.04044	0.00183	2e-05	0	0	0	0	0	0	0	0	0	0
22.8	0	0	3e-05	0.01407	0.1976	0.47195	0.27077	0.04396	0.00159	3e-05	0	0	0	0	0	0	0	0	0	0
22.85	0	0	4e-05	0.01292	0.19553	0.47373	0.27286	0.04298	0.00191	3e-05	0	0	0	0	0	0	0	0	0	0
22.9	0	0	2e-05	0.01154	0.19096	0.46971	0.2789	0.04667	0.00217	3e-05	0	0	0	0	0	0	0	0	0	0
22.95	0	0	0	0.01172	0.18529	0.46996	0.28331	0.04744	0.00226	2e-05	0	0	0	0	0	0	0	0	0	0
23	0	0	1e-05	0.01127	0.18267	0.46507	0.28932	0.04933	0.0023	3e-05	0	0	0	0	0	0	0	0	0	0
23.05	0	0	2e-05	0.01042	0.17811	0.465	0.29247	0.05196	0.002	2e-05	0	0	0	0	0	0	0	0	0	0
23.1	0	0	2e-05	0.01039	0.1751	0.46208	0.29666	0.0531	0.00259	6e-05	0	0	0	0	0	0	0	0	0	0
23.15	0	0	1e-05	0.0095	0.17237	0.45758	0.30134	0.05658	0.00256	6e-05	0	0	0	0	0	0	0	0	0	0
23.2	0	0	1e-05	0.00892	0.16814	0.45598	0.30638	0.05754	0.00297	6e-05	0	0	0	0	0	0	0	0	0	0
23.25	0	0	2e-05	0.00867	0.16544	0.45651	0.30836	0.0583	0.00265	5e-05	0	0	0	0	0	0	0	0	0	0
23.3	0	0	3e-05	0.00848	0.16048	0.45215	0.31382	0.06206	0.00296	2e-05	0	0	0	0	0	0	0	0	0	0
23.35	0	0	0	0.00754	0.15715	0.44864	0.3198	0.06329	0.0035	8e-05	0	0	0	0	0	0	0	0	0	0
23.4	0	0	2e-05	0.00713	0.15123	0.44623	0.32563	0.06613	0.00359	4e-05	0	0	0	0	0	0	0	0	0	0
23.45	0	0	4e-05	0.00715	0.14917	0.44174	0.33114	0.06729	0.0034	7e-05	0	0	0	0	0	0	0	0	0	0
23.5	0	0	2e-05	0.00639	0.14818	0.44003	0.33185	0.06946	0.00402	5e-05	0	0	0	0	0	0	0	0	0	0
23.55	0	0	0	0.00603	0.14385	0.43593	0.338	0.07234	0.00379	6e-05	0	0	0	0	0	0	0	0	0	0
23.6	0	0	0	0.00554	0.13974	0.43381	0.34194	0.07443	0.00447	7e-05	0	0	0	0	0	0	0	0	0	0
23.65	0	0	3e-05	0.00547	0.13744	0.43003	0.3452	0.07716	0.00457	9e-05	1e-05	0	0	0	0	0	0	0	0	0
23.7	0	0	0	0.00494	0.13457	0.42877	0.3468	0.0798	0.00507	5e-05	0	0	0	0	0	0	0	0	0	0
23.75	0	0	0	0.00484	0.13224	0.42347	0.35311	0.0812	0.00507	7e-05	0	0	0	0	0	0	0	0	0	0
23.8	0	0	0	0.00442	0.12754	0.42214	0.35613	0.08392	0.00576	9e-05	0	0	0	0	0	0	0	0	0	0
23.85	0	0	0	0.0041	0.12465	0.41919	0.36122	0.08444	0.00629	0.00011	0	0	0	0	0	0	0	0	0	0
23.9	0	0	0	0.00405	0.1209	0.41343	0.36669	0.0886	0.00616	0.00016	1e-05	0	0	0	0	0	0	0	0	0
23.95	0	0	0	0.00378	0.11802	0.41086	0.37063	0.08999	0.00662	0.0001	0	0	0	0	0	0	0	0	0	0
24	0	0	1e-05	0.00359	0.11669	0.4058	0.37422	0.09255	0.00703	0.00011	0	0	0	0	0	0	0	0	0	0
24.05	0	0	0	0.00318	0.11456	0.40071	0.37522	0.09893	0.00723	0.00017	0	0	0	0	0	0	0	0	0	0
24.1	0	0	0	0.00323	0.1094	0.39996	0.38054	0.09908	0.00769	0.0001	0	0	0	0	0	0	0	0	0	0
24.15	0	0	0	0.00308	0.10676	0.39359	0.38431	0.10374	0.00842	0.0001	0	0	0	0	0	0	0	0	0	0
24.2	0	0	0	0.00286	0.10243	0.39386	0.38649	0.10566	0.00851	0.00019	0	0	0	0	0	0	0	0	0	0
24.25	0	0	0	0.00264	0.10245	0.38972	0.3898	0.10616	0.00894	0.00028	1e-05	0	0	0	0	0	0	0	0	0
24.3	0	0	0	0.00223	0.09785	0.38378	0.39615	0.11033	0.00948	0.00018	0	0	0	0	0	0	0	0	0	0
24.35	0	0	0	0.00227	0.09709	0.3783	0.39804	0.11452	0.00958	0.0002	0	0	0	0	0	0	0	0	0	0
24.4	0	0	0	0.00223	0.09647	0.37332	0.40205	0.11538	0.01035	0.0002	0	0	0	0	0	0	0	0	0	0
24.45	0	0	0	0.002	0.0922	0.37371	0.40349	0.11745	0.01098	0.00017	0	0	0	0	0	0	0	0	0	0
24.5	0	0	0	0.00188	0.09058	0.36739	0.40899	0.11929	0.01165	0.00022	0	0	0	0	0	0	0	0	0	0
24.55	0	0	0	0.00154	0.0864	0.36192	0.41092	0.12688	0.012	0.00033	1e-05	0	0	0	0	0	0	0	0	0
24.6	0	0	0	0.00177	0.0855	0.36069	0.40952	0.12976	0.01246	0.0003	0	0	0	0	0	0	0	0	0	0
24.65	0	0	0	0.00154	0.08167	0.35498	0.41814	0.13027	0.01311	0.00028	1e-05	0	0	0	0	0	0	0	0	0
24.7	0	0	2e-05	0.0015	0.07875	0.35174	0.42011	0.13385	0.01373	0.00029	1e-05	0	0	0	0	0	0	0	0	0
24.75	0	0	0	0.00161	0.07674	0.34966	0.41837	0.13918	0.01402	0.00042	0	0	0	0	0	0	0	0	0	0
24.8	0	0	0	0.00118	0.07553	0.3418	0.42416	0.14156	0.01549	0.00028	0	0	0	0	0	0	0	0	0	0
24.85	0	0	0	0.0012	0.07244	0.33971	0.42528	0.14548	0.01543	0.00045	1e-05	0	0	0	0	0	0	0	0	0
24.9	0	0	0	0.0011	0.0718	0.33585	0.42736	0.14722	0.01617	0.0005	0	0	0	0	0	0	0	0	0	0
24.95	0	0	0	0.00108	0.06809	0.33061	0.43161	0.15137	0.01666	0.00058	0	0	0	0	0	0	0	0	0	0
25	0	0	0	0.00101	0.0682	0.32748	0.43011	0.15502	0.01761	0.00056	1e-05	0	0	0	0	0	0	0	0	0
25.05	0	0	0	0.00093	0.06459	0.32454	0.43193	0.15937	0.01809	0.00055	0	0	0	0	0	0	0	0	0	0
25.1	0	0	0	0.00085	0.06495	0.31812	0.43532	0.16099	0.01916	0.0006	1e-05	0	0	0	0	0	0	0	0	0
25.15	0	0	0	0.00106	0.06079	0.31475	0.43769	0.16479	0.02031	0.00061	0	0	0	0	0	0	0	0	0	0
25.2	0	0	0	0.00082	0.061	0.30848	0.44071	0.1669	0.02143	0.00066	0	0	0	0	0	0	0	0	0	0
25.25	0	0	0	0.00073	0.05738	0.30738	0.43929	0.17301	0.0214	0.00081	0	0	0	0	0	0	0	0	0	0
25.3	0	0	0	0.00076	0.05621	0.30048	0.44366	0.17561	0.02243	0.00082	3e-05	0	0	0	0	0	0	0	0	0
25.35	0	0	0	0.00059	0.05417	0.2982	0.44304	0.1797	0.02346	0.00083	1e-05	0	0	0	0	0	0	0	0	0
25.4	0	0	0	0.00065	0.0529	0.29499	0.44366	0.18203	0.0247	0.00106	1e-05	0	0	0	0	0	0	0	0	0
25.45	0	0	0	0.0005	0.05146	0.29059	0.44516	0.18628	0.02506	0.00093	2e-05	0	0	0	0	0	0	0	0	0
25.5	0	0	0	0.00046	0.04966	0.2861	0.4454	0.19085	0.02655	0.00098	0	0	0	0	0	0	0	0	0	0
25.55	0	0	0	0.00036	0.04727	0.28264	0.44395	0.19714	0.02771	0.00093	0	0	0	0	0	0	0	0	0	0
25.6	0	0	0	0.00068	0.04656	0.27875	0.4476	0.19693	0.02824	0.00124	0	0	0	0	0	0	0	0	0	0
25.65	0	0	0	0.00044	0.04485	0.27241	0.4476	0.2032	0.03041	0.00109	0	0	0	0	0	0	0	0	0	0
25.7	0	0	0	0.00041	0.04428	0.2686	0.44907	0.20631	0.03004	0.00128	1e-05	0	0	0	0	0	0	0	0	0
25.75	0	0	0	0.00037	0.04232	0.26363	0.44856	0.21162	0.03234	0.00116	0	0	0	0	0	0	0	0	0	0
25.8	0	0	0	0.00041	0.04079	0.2615	0.44557	0.21545	0.03477	0.00145	6e-05	0	0	0	0	0	0	0	0	0
25.85	0	0	0	0.0003	0.03944	0.25743	0.44878	0.21734	0.03502	0.00165	4e-05	0	0	0	0	0	0	0	0	0
25.9	0	0	0	0.00032	0.03855	0.25176	0.44932	0.22315	0.03511	0.00177	2e-05	0	0	0	0	0	0	0	0	0
25.95	0	0	0	0.00036	0.03799	0.24905	0.44726	0.22619	0.03746	0.00169	0	0	0	0	0	0	0	0	0	0
26	0	0	0	0.00035	0.03515	0.24571	0.4477	0.23103	0.03806	0.002	0	0	0	0	0	0	0	0	0	0
26.05	0	0	0	0.00034	0.03375	0.24115	0.4477	0.23396	0.04097	0.00208	5e-05	0	0	0	0	0	0	0	0	0
26.1	0	0	0	0.00029	0.03286	0.23986	0.44766	0.23641	0.04101	0.0019	1e-05	0	0	0	0	0	0	0	0	0
26.15	0	0	0	0.00024	0.0315	0.23559	0.44273	0.24419	0.04324	0.00245	6e-05	0	0	0	0	0	0	0	0	0
26.2	0	0	0	0.00034	0.03173	0.23096	0.44589	0.24538	0.0431	0.00258	2e-05	0	0	0	0	0	0	0	0	0
26.25	0	0	0	0.00021	0.0294	0.22718	0.44555	0.2497	0.04518	0.00274	4e-05	0	0	0	0	0	0	0	0	0
26.3	0	0	0	0.0002	0.02882	0.22118	0.44523	0.25396	0.04808	0.00252	1e-05	0	0	0	0	0	0	0	0	0
26.35	0	0	0	0.00014	0.02783	0.21819	0.44472	0.25803	0.04835	0.00269	5e-05	0	0	0	0	0	0	0	0	0
26.4	0	0	0	0.00021	0.02676	0.21414	0.44328	0.26219	0.05049	0.00285	8e-05	0	0	0	0	0	0	0	0	0
26.45	0	0	0	0.00012	0.025	0.21326	0.44144	0.26426	0.0527	0.00317	5e-05	0	0	0	0	0	0	0	0	0
26.5	0	0	0	0.00013	0.02493	0.20621	0.4425	0.26994	0.05304	0.00319	6e-05	0	0	0	0	0	0	0	0	0
26.55	0	0	0	0.00014	0.02366	0.20614	0.4381	0.27267	0.0555	0.00375	4e-05	0	0	0	0	0	0	0	0	0
26.6	0	0	0	0.00014	0.02162	0.20174	0.44014	0.27582	0.05678	0.0037	6e-05	0	0	0	0	0	0	0	0	0
26.65	0	0	0	0.00012	0.02192	0.20021	0.43362	0.28115	0.05913	0.00379	6e-05	0	0	0	0	0	0	0	0	0
26.7	0	0	0	9e-05	0.02078	0.19249	0.43517	0.28529	0.06203	0.00409	6e-05	0	0	0	0	0	0	0	0	0
26.75	0	0	0	0.00011	0.02109	0.19027	0.43438	0.28728	0.06232	0.00448	7e-05	0	0	0	0	0	0	0	0	0
26.8	0	0	0	0.00012	0.02	0.18776	0.42976	0.29248	0.06512	0.00464	0.00012	0	0	0	0	0	0	0	0	0
26.85	0	0	0	0.00013	0.01896	0.18289	0.42871	0.29841	0.06605	0.00477	8e-05	0	0	0	0	0	0	0	0	0
26.9	0	0	0	7e-05	0.01829	0.18116	0.4264	0.30154	0.06759	0.00482	0.00013	0	0	0	0	0	0	0	0	0
26.95	0	0	0	0.00014	0.0177	0.1752	0.42777	0.30216	0.07113	0.00575	0.00015	0	0	0	0	0	0	0	0	0
27	0	0	0	8e-05	0.01706	0.175	0.42204	0.30844	0.07184	0.00541	0.00013	0	0	0	0	0	0	0	0	0
27.05	0	0	0	0.00012	0.01592	0.17172	0.41969	0.31224	0.07409	0.00607	0.00015	0	0	0	0	0	0	0	0	0
27.1	0	0	0	7e-05	0.01531	0.16778	0.42103	0.31221	0.07738	0.00605	0.00017	0	0	0	0	0	0	0	0	0
27.15	0	0	0	8e-05	0.01485	0.16427	0.41727	0.31862	0.07869	0.00611	0.00011	0	0	0	0	0	0	0	0	0
27.2	0	0	0	6e-05	0.01391	0.15944	0.4141	0.32479	0.08046	0.00712	0.00012	0	0	0	0	0	0	0	0	0
27.25	0	0	0	0.00012	0.01415	0.15765	0.41304	0.32316	0.08465	0.00708	0.00015	0	0	0	0	0	0	0	0	0
27.3	0	0	0	2e-05	0.0132	0.15379	0.41078	0.32968	0.0847	0.00765	0.00018	0	0	0	0	0	0	0	0	0
27.35	0	0	0	3e-05	0.01228	0.15111	0.40785	0.33175	0.08847	0.00831	0.0002	0	0	0	0	0	0	0	0	0
27.4	0	0	0	1e-05	0.0126	0.14744	0.40422	0.33582	0.09136	0.0083	0.00024	1e-05	0	0	0	0	0	0	0	0
27.45	0	0	0	2e-05	0.01079	0.14506	0.40422	0.33891	0.09219	0.00849	0.00032	0	0	0	0	0	0	0	0	0
27.5	0	0	0	3e-05	0.01065	0.14076	0.39974	0.34491	0.0949	0.00882	0.00019	0	0	0	0	0	0	0	0	0
27.55	0	0	0	3e-05	0.01056	0.13819	0.39551	0.34815	0.09758	0.00973	0.00024	1e-05	0	0	0	0	0	0	0	0
27.6	0	0	0	6e-05	0.01025	0.13567	0.39552	0.3487	0.09953	0.00998	0.00029	0	0	0	0	0	0	0	0	0
27.65	0	0	0	3e-05	0.0098	0.13419	0.3917	0.35272	0.101	0.01023	0.00033	0	0	0	0	0	0	0	0	0
27.7	0	0	0	3e-05	0.00939	0.13024	0.38906	0.35403	0.10614	0.0109	0.00021	0	0	0	0	0	0	0	0	0
27.75	0	0	0	5e-05	0.00872	0.12828	0.38508	0.35963	0.10677	0.01113	0.00034	0	0	0	0	0	0	0	0	0
27.8	0	0	0	4e-05	0.00871	0.12569	0.38358	0.3605	0.10953	0.01158	0.00037	0	0	0	0	0	0	0	0	0
27.85	0	0	0	4e-05	0.00821	0.12085	0.38196	0.36465	0.11221	0.01177	0.00031	0	0	0	0	0	0	0	0	0
27.9	0	0	0	3e-05	0.00745	0.12002	0.37566	0.36927	0.11456	0.01266	0.00035	0	0	0	0	0	0	0	0	0
27.95	0	0	0	3e-05	0.00781	0.11778	0.37324	0.36986	0.11757	0.01326	0.00043	2e-05	0	0	0	0	0	0	0	0
28	0	0	0	3e-05	0.00734	0.11503	0.37222	0.37151	0.11967	0.01363	0.00056	1e-05	0	0	0	0	0	0	0	0
28.05	0	0	0	3e-05	0.00652	0.11097	0.36658	0.376	0.12452	0.01478	0.00059	1e-05	0	0	0	0	0	0	0	0
28.1	0	0	0	4e-05	0.00648	0.10912	0.36521	0.37936	0.12379	0.01542	0.00057	1e-05	0	0	0	0	0	0	0	0
28.15	0	0	0	1e-05	0.0058	0.10619	0.35757	0.38265	0.13103	0.01613	0.00061	1e-05	0	0	0	0	0	0	0	0
28.2	0	0	0	2e-05	0.0057	0.10283	0.35963	0.38184	0.13247	0.01704	0.00047	0	0	0	0	0	0	0	0	0
28.25	0	0	0	2e-05	0.00548	0.10212	0.3554	0.38325	0.13543	0.01755	0.00075	0	0	0	0	0	0	0	0	0
28.3	0	0	0	3e-05	0.00607	0.09993	0.35177	0.38643	0.13751	0.01751	0.00074	1e-05	0	0	0	0	0	0	0	0
28.35	0	0	0	1e-05	0.0049	0.09491	0.34598	0.39255	0.14234	0.01873	0.00056	2e-05	0	0	0	0	0	0	0	0
28.4	0	0	0	0	0.0047	0.09527	0.34403	0.39109	0.14436	0.01962	0.00092	1e-05	0	0	0	0	0	0	0	0
28.45	0	0	0	2e-05	0.0043	0.09208	0.33894	0.39623	0.14776	0.01977	0.00087	3e-05	0	0	0	0	0	0	0	0
28.5	0	0	0	3e-05	0.00431	0.09007	0.33818	0.39484	0.15114	0.02053	0.00089	1e-05	0	0	0	0	0	0	0	0
28.55	0	0	0	0	0.00454	0.0881	0.33381	0.39763	0.15305	0.02201	0.00085	1e-05	0	0	0	0	0	0	0	0
28.6	0	0	0	3e-05	0.004	0.08872	0.33145	0.39668	0.15538	0.02259	0.0011	4e-05	1e-05	0	0	0	0	0	0	0
28.65	0	0	0	0	0.00332	0.08434	0.3278	0.39866	0.1611	0.02365	0.00111	2e-05	0	0	0	0	0	0	0	0
28.7	0	0	0	0	0.00367	0.0837	0.32218	0.40269	0.1622	0.02432	0.00123	1e-05	0	0	0	0	0	0	0	0
28.75	0	0	0	2e-05	0.0032	0.07906	0.31827	0.40569	0.16739	0.02525	0.00111	1e-05	0	0	0	0	0	0	0	0
28.8	0	0	0	2e-05	0.00317	0.07757	0.31483	0.40785	0.16964	0.02578	0.00114	0	0	0	0	0	0	0	0	0
28.85	0	0	0	1e-05	0.00287	0.0759	0.31323	0.40452	0.17523	0.02669	0.00154	1e-05	0	0	0	0	0	0	0	0
28.9	0	0	0	5e-05	0.00304	0.07408	0.30891	0.40869	0.17619	0.02734	0.00168	2e-05	0	0	0	0	0	0	0	0
28.95	0	0	0	0	0.00261	0.07143	0.30659	0.40963	0.17983	0.02846	0.00143	2e-05	0	0	0	0	0	0	0	0
29	0	0	0	1e-05	0.00242	0.06952	0.30286	0.40838	0.18442	0.03062	0.00172	4e-05	1e-05	0	0	0	0	0	0	0
29.05	0	0	0	1e-05	0.00242	0.068	0.30137	0.41119	0.18561	0.02971	0.00166	3e-05	0	0	0	0	0	0	0	0
29.1	0	0	0	0	0.00218	0.06667	0.29579	0.41182	0.19024	0.03162	0.00167	1e-05	0	0	0	0	0	0	0	0
29.15	0	0	0	0	0.00217	0.06505	0.29045	0.41475	0.19344	0.03234	0.00178	2e-05	0	0	0	0	0	0	0	0
29.2	0	0	0	0	0.00222	0.06468	0.2894	0.41145	0.19722	0.03304	0.00195	4e-05	0	0	0	0	0	0	0	0
29.25	0	0	0	0	0.00191	0.0606	0.28655	0.41153	0.20152	0.03594	0.00191	4e-05	0	0	0	0	0	0	0	0
29.3	0	0	0	0	0.00193	0.05944	0.27894	0.41641	0.20442	0.03673	0.00207	6e-05	0	0	0	0	0	0	0	0
29.35	0	0	0	0	0.00178	0.05832	0.27727	0.41628	0.20689	0.03703	0.00235	8e-05	0	0	0	0	0	0	0	0
29.4	0	0	0	2e-05	0.00168	0.05636	0.27227	0.41911	0.20935	0.03866	0.00248	7e-05	0	0	0	0	0	0	0	0
29.45	0	0	0	0	0.00158	0.05391	0.2685	0.41875	0.21454	0.04014	0.00254	4e-05	0	0	0	0	0	0	0	0
29.5	0	0	0	0	0.00136	0.05426	0.26521	0.41944	0.2151	0.04206	0.00249	8e-05	0	0	0	0	0	0	0	0
29.55	0	0	0	0	0.00154	0.05298	0.26316	0.41605	0.22082	0.04228	0.00307	0.0001	0	0	0	0	0	0	0	0
29.6	0	0	0	1e-05	0.00131	0.05055	0.25861	0.41776	0.22499	0.04387	0.00284	6e-05	0	0	0	0	0	0	0	0
29.65	0	0	0	1e-05	0.0013	0.05023	0.25505	0.41637	0.22716	0.04631	0.00349	8e-05	0	0	0	0	0	0	0	0
29.7	0	0	0	0	0.00103	0.04904	0.25117	0.41703	0.23261	0.04575	0.0033	6e-05	1e-05	0	0	0	0	0	0	0
29.75	0	0	0	0	0.0012	0.04637	0.24801	0.41976	0.23146	0.04915	0.00396	9e-05	0	0	0	0	0	0	0	0
29.8	0	0	0	0	0.00094	0.04607	0.24657	0.41735	0.23693	0.04872	0.00333	9e-05	0	0	0	0	0	0	0	0
29.85	0	0	0	0	0.00117	0.04385	0.24356	0.41595	0.23987	0.05166	0.00381	0.00013	0	0	0	0	0	0	0	0
29.9	0	0	0	0	0.00097	0.04247	0.23992	0.41617	0.24387	0.05242	0.00407	0.00011	0	0	0	0	0	0	0	0
29.95	0	0	0	0	0.00076	0.04096	0.23434	0.41583	0.24985	0.05397	0.0042	9e-05	0	0	0	0	0	0	0	0
30	0	0	0	0	0.00089	0.03893	0.23109	0.41546	0.2531	0.05617	0.00418	0.00018	0	0	0	0	0	0	0	0
30.05	0	0	0	0	0.00093	0.0384	0.2284	0.41393	0.25571	0.05764	0.00485	0.00014	0	0	0	0	0	0	0	0
30.1	0	0	0	0	0.00074	0.03692	0.22385	0.41451	0.25911	0.05979	0.00494	0.00014	0	0	0	0	0	0	0	0
30.15	0	0	0	0	0.0006	0.03692	0.22139	0.4107	0.26378	0.06117	0.00526	0.00017	1e-05	0	0	0	0	0	0	0
30.2	0	0	0	0	0.0008	0.03572	0.21984	0.41366	0.26186	0.06304	0.00495	0.00013	0	0	0	0	0	0	0	0
30.25	0	0	0	0	0.00061	0.03458	0.21262	0.41248	0.26999	0.06384	0.00563	0.00025	0	0	0	0	0	0	0	0
30.3	0	0	0	0	0.0005	0.03437	0.21064	0.41068	0.27272	0.06532	0.00561	0.00016	0	0	0	0	0	0	0	0
30.35	0	0	0	0	0.00075	0.03252	0.20775	0.40716	0.2775	0.06771	0.00635	0.00026	0	0	0	0	0	0	0	0
30.4	0	0	0	0	0.00047	0.03247	0.20309	0.40793	0.27827	0.07119	0.00641	0.00017	0	0	0	0	0	0	0	0
30.45	0	0	0	0	0.0006	0.03107	0.19828	0.40733	0.28337	0.07263	0.00652	0.0002	0	0	0	0	0	0	0	0
30.5	0	0	0	0	0.00045	0.02968	0.19874	0.40814	0.28331	0.07281	0.00663	0.00024	0	0	0	0	0	0	0	0
30.55	0	0	0	0	0.00049	0.02836	0.19335	0.40405	0.28941	0.07659	0.00747	0.00028	0	0	0	0	0	0	0	0
30.6	0	0	0	0	0.00051	0.02731	0.19317	0.40098	0.29307	0.07692	0.00774	0.0003	0	0	0	0	0	0	0	0
30.65	0	0	0	0	0.00044	0.02741	0.18732	0.40207	0.29464	0.07973	0.00816	0.00021	2e-05	0	0	0	0	0	0	0
30.7	0	0	0	0	0.00044	0.02571	0.18357	0.39988	0.30032	0.08107	0.0087	0.00031	0	0	0	0	0	0	0	0
30.75	0	0	0	0	0.00025	0.02532	0.18273	0.39872	0.30094	0.08306	0.00864	0.00034	0	0	0	0	0	0	0	0
30.8	0	0	0	0	0.00036	0.02429	0.17901	0.39608	0.30445	0.08579	0.00962	0.0004	0	0	0	0	0	0	0	0
30.85	0	0	0	0	0.00028	0.0238	0.1736	0.396	0.3074	0.08836	0.01012	0.00044	0	0	0	0	0	0	0	0
30.9	0	0	0	0	0.00027	0.02217	0.1726	0.39182	0.31216	0.09043	0.01011	0.00044	0	0	0	0	0	0	0	0
30.95	0	0	0	0	0.00026	0.02202	0.17083	0.39083	0.31333	0.09219	0.01013	0.00041	0	0	0	0	0	0	0	0
31	0	0	0	0	0.00022	0.02092	0.16625	0.38777	0.31805	0.0958	0.01059	0.0004	0	0	0	0	0	0	0	0
31.05	0	0	0	0	0.00022	0.02053	0.16457	0.38817	0.31872	0.09572	0.0116	0.00046	0	1e-05	0	0	0	0	0	0
31.1	0	0	0	0	0.00017	0.02039	0.15996	0.38619	0.3213	0.0994	0.01211	0.00047	1e-05	0	0	0	0	0	0	0
31.15	0	0	0	0	0.0003	0.01948	0.15887	0.38203	0.32562	0.10091	0.01227	0.00052	0	0	0	0	0	0	0	0
31.2	0	0	0	0	0.0002	0.01817	0.15424	0.38033	0.32939	0.10448	0.01269	0.00048	2e-05	0	0	0	0	0	0	0
31.25	0	0	0	0	0.00018	0.01786	0.15205	0.37667	0.33304	0.10626	0.01329	0.00065	0	0	0	0	0	0	0	0
31.3	0	0	0	0	0.00012	0.01688	0.14897	0.3757	0.33447	0.1086	0.01459	0.00067	0	0	0	0	0	0	0	0
31.35	0	0	0	0	0.00015	0.01643	0.14812	0.37004	0.33718	0.11299	0.01434	0.00073	2e-05	0	0	0	0	0	0	0
31.4	0	0	0	0	0.00011	0.01646	0.14301	0.37329	0.33834	0.11373	0.01447	0.00058	1e-05	0	0	0	0	0	0	0
31.45	0	0	0	0	0.00013	0.01478	0.13912	0.37312	0.34226	0.11441	0.01527	0.00089	2e-05	0	0	0	0	0	0	0
31.5	0	0	0	0	0.00018	0.01472	0.13846	0.36481	0.34502	0.11993	0.01602	0.00086	0	0	0	0	0	0	0	0
31.55	0	0	0	0	8e-05	0.01421	0.13542	0.3648	0.34659	0.1212	0.01669	0.00101	0	0	0	0	0	0	0	0
31.6	0	0	0	0	8e-05	0.01378	0.13297	0.36087	0.34938	0.1246	0.01748	0.00079	5e-05	0	0	0	0	0	0	0
31.65	0	0	0	0	0.00019	0.01329	0.12934	0.35948	0.35158	0.12749	0.01779	0.00082	1e-05	1e-05	0	0	0	0	0	0
31.7	0	0	0	0	0.0001	0.0126	0.12762	0.35479	0.35661	0.12928	0.01818	0.0008	2e-05	0	0	0	0	0	0	0
31.75	0	0	0	0	0.00012	0.01203	0.12388	0.35375	0.35741	0.13207	0.01971	0.00103	0	0	0	0	0	0	0	0
31.8	0	0	0	0	5e-05	0.01143	0.12161	0.34966	0.36209	0.1337	0.02029	0.00114	3e-05	0	0	0	0	0	0	0
31.85	0	0	0	0	5e-05	0.011	0.11865	0.34553	0.36473	0.13788	0.02094	0.00121	1e-05	0	0	0	0	0	0	0
31.9	0	0	0	0	5e-05	0.01059	0.11831	0.34754	0.36079	0.13933	0.02228	0.00107	4e-05	0	0	0	0	0	0	0
31.95	0	0	0	0	8e-05	0.01109	0.11474	0.34115	0.36619	0.14355	0.02208	0.0011	2e-05	0	0	0	0	0	0	0
32	0	0	0	0	4e-05	0.01041	0.11245	0.33883	0.36867	0.14479	0.0233	0.00145	6e-05	0	0	0	0	0	0	0
32.05	0	0	0	0	9e-05	0.01001	0.10871	0.33944	0.36745	0.1483	0.02453	0.00147	0	0	0	0	0	0	0	0
32.1	0	0	0	0	7e-05	0.00943	0.10771	0.33378	0.37299	0.14921	0.02511	0.00165	5e-05	0	0	0	0	0	0	0
32.15	0	0	0	0	7e-05	0.00905	0.10569	0.3295	0.37404	0.15449	0.02551	0.0016	5e-05	0	0	0	0	0	0	0
32.2	0	0	0	0	8e-05	0.00858	0.1032	0.32657	0.37609	0.15708	0.02658	0.00176	6e-05	0	0	0	0	0	0	0
32.25	0	0	0	0	5e-05	0.00774	0.10137	0.32615	0.37543	0.15962	0.02783	0.00179	2e-05	0	0	0	0	0	0	0
32.3	0	0	0	0	5e-05	0.008	0.09967	0.32293	0.37742	0.16234	0.02756	0.00201	2e-05	0	0	0	0	0	0	0
32.35	0	0	0	0	3e-05	0.00799	0.09896	0.31781	0.37887	0.16483	0.02941	0.00206	4e-05	0	0	0	0	0	0	0
32.4	0	0	0	0	4e-05	0.00732	0.09555	0.3154	0.37913	0.17072	0.02973	0.00203	8e-05	0	0	0	0	0	0	0
32.45	0	0	0	0	7e-05	0.00731	0.09129	0.31618	0.37976	0.17244	0.03084	0.00207	4e-05	0	0	0	0	0	0	0
32.5	0	0	0	0	5e-05	0.00667	0.0892	0.31044	0.38537	0.17387	0.03203	0.0023	7e-05	0	0	0	0	0	0	0
32.55	0	0	0	0	4e-05	0.00636	0.0879	0.30677	0.38486	0.17924	0.03243	0.00232	8e-05	0	0	0	0	0	0	0
32.6	0	0	0	0	5e-05	0.00666	0.0862	0.30621	0.38321	0.18088	0.03404	0.00265	0.0001	0	0	0	0	0	0	0
32.65	0	0	0	0	1e-05	0.00578	0.08391	0.30492	0.38315	0.18393	0.03564	0.00263	3e-05	0	0	0	0	0	0	0
32.7	0	0	0	0	2e-05	0.0057	0.08367	0.29839	0.38419	0.1886	0.03652	0.00278	0.00013	0	0	0	0	0	0	0
32.75	0	0	0	0	2e-05	0.0058	0.07955	0.29474	0.38629	0.19205	0.03838	0.00308	9e-05	0	0	0	0	0	0	0
32.8	0	0	0	0	3e-05	0.00484	0.07927	0.29272	0.38971	0.19238	0.03783	0.00313	9e-05	0	0	0	0	0	0	0
32.85	0	0	0	0	3e-05	0.0048	0.07784	0.28917	0.38853	0.19592	0.0401	0.00353	8e-05	0	0	0	0	0	0	0
32.9	0	0	0	0	0	0.00447	0.07365	0.28437	0.39401	0.19912	0.04086	0.0034	0.00012	0	0	0	0	0	0	0
32.95	0	0	0	0	2e-05	0.00456	0.07434	0.28167	0.392	0.20096	0.04288	0.00349	8e-05	0	0	0	0	0	0	0
33	0	0	0	0	1e-05	0.00412	0.07259	0.27844	0.39307	0.20408	0.04363	0.00396	0.0001	0	0	0	0	0	0	0
33.05	0	0	0	0	0	0.0043	0.06975	0.27505	0.39421	0.20757	0.04525	0.00377	0.0001	0	0	0	0	0	0	0
33.1	0	0	0	0	1e-05	0.00397	0.06855	0.27188	0.39415	0.21109	0.04638	0.00378	0.00018	1e-05	0	0	0	0	0	0
33.15	0	0	0	0	2e-05	0.00381	0.06619	0.27119	0.39008	0.21703	0.04742	0.00416	0.0001	0	0	0	0	0	0	0
33.2	0	0	0	0	4e-05	0.00341	0.0646	0.26602	0.39599	0.2163	0.04932	0.00413	0.00019	0	0	0	0	0	0	0
33.25	0	0	0	0	2e-05	0.00342	0.06258	0.26123	0.39537	0.22242	0.05002	0.00477	0.00017	0	0	0	0	0	0	0
33.3	0	0	0	0	2e-05	0.00319	0.06254	0.26228	0.38972	0.2246	0.05267	0.00483	0.00015	0	0	0	0	0	0	0
33.35	0	0	0	0	0	0.00339	0.06036	0.25679	0.39192	0.23061	0.05192	0.00486	0.00015	0	0	0	0	0	0	0
33.4	0	0	0	0	1e-05	0.00298	0.05909	0.25288	0.39604	0.22842	0.05543	0.00493	0.00021	1e-05	0	0	0	0	0	0
33.45	0	0	0	0	2e-05	0.00278	0.05657	0.24995	0.39465	0.23363	0.0565	0.00569	0.00021	0	0	0	0	0	0	0
33.5	0	0	0	0	2e-05	0.00288	0.05614	0.24714	0.39404	0.23697	0.05671	0.00587	0.00023	0	0	0	0	0	0	0
33.55	0	0	0	0	1e-05	0.00268	0.05414	0.24382	0.39393	0.2398	0.0591	0.00633	0.00018	1e-05	0	0	0	0	0	0
33.6	0	0	0	0	2e-05	0.00237	0.05399	0.242	0.39078	0.24349	0.06116	0.00602	0.00017	0	0	0	0	0	0	0
33.65	0	0	0	0	2e-05	0.00257	0.05185	0.23397	0.39339	0.24809	0.06344	0.00638	0.00028	1e-05	0	0	0	0	0	0
33.7	0	0	0	0	1e-05	0.00211	0.04977	0.23387	0.39189	0.25009	0.06471	0.00721	0.00034	0	0	0	0	0	0	0
33.75	0	0	0	0	2e-05	0.00226	0.0502	0.2303	0.39199	0.25307	0.065	0.00688	0.00028	0	0	0	0	0	0	0
33.8	0	0	0	0	2e-05	0.00213	0.04701	0.22843	0.38698	0.25912	0.06853	0.0075	0.00028	0	0	0	0	0	0	0
33.85	0	0	0	0	0	0.00187	0.04575	0.22347	0.39126	0.25979	0.0698	0.00767	0.00038	1e-05	0	0	0	0	0	0
33.9	0	0	0	0	1e-05	0.00185	0.04445	0.22493	0.38972	0.26039	0.06999	0.00833	0.00031	2e-05	0	0	0	0	0	0
33.95	0	0	0	0	0	0.00167	0.044	0.22051	0.38888	0.26415	0.07239	0.00809	0.00031	0	0	0	0	0	0	0
34	0	0	0	0	0	0.00161	0.04302	0.21606	0.38792	0.26802	0.07429	0.00876	0.00031	1e-05	0	0	0	0	0	0
34.05	0	0	0	0	0	0.00151	0.04134	0.21203	0.38878	0.27029	0.07589	0.00977	0.00039	0	0	0	0	0	0	0
34.1	0	0	0	0	0	0.00149	0.04111	0.20784	0.38619	0.27414	0.07957	0.00924	0.00042	0	0	0	0	0	0	0
34.15	0	0	0	0	0	0.0014	0.03905	0.20735	0.38659	0.27786	0.07756	0.0097	0.00049	0	0	0	0	0	0	0
34.2	0	0	0	0	3e-05	0.00136	0.0379	0.20719	0.38232	0.27886	0.08211	0.00975	0.00047	1e-05	0	0	0	0	0	0
34.25	0	0	0	0	1e-05	0.00135	0.0371	0.20172	0.38492	0.28096	0.08392	0.00954	0.00048	0	0	0	0	0	0	0
34.3	0	0	0	0	0	0.00134	0.03573	0.19762	0.38219	0.28594	0.08621	0.01032	0.00064	1e-05	0	0	0	0	0	0
34.35	0	0	0	0	0	0.00126	0.03446	0.19265	0.37882	0.29168	0.08924	0.01126	0.00063	0	0	0	0	0	0	0
34.4	0	0	0	0	0	0.00128	0.03413	0.19111	0.37803	0.2917	0.09083	0.01228	0.00064	0	0	0	0	0	0	0
34.45	0	0	0	0	0	0.00117	0.03254	0.19104	0.37931	0.29168	0.09144	0.01206	0.00075	1e-05	0	0	0	0	0	0
34.5	0	0	0	0	0	0.00111	0.03134	0.18581	0.37879	0.29428	0.09536	0.01254	0.00077	0	0	0	0	0	0	0
34.55	0	0	0	0	0	0.00092	0.03112	0.18182	0.3752	0.30001	0.09699	0.0131	0.00081	3e-05	0	0	0	0	0	0
34.6	0	0	0	0	0	0.00091	0.03095	0.17768	0.37517	0.30159	0.09922	0.01377	0.0007	1e-05	0	0	0	0	0	0
34.65	0	0	0	0	0	0.00084	0.02987	0.17604	0.36995	0.30645	0.10192	0.01415	0.00078	0	0	0	0	0	0	0
34.7	0	0	0	0	0	0.00095	0.02809	0.17342	0.36796	0.30994	0.10359	0.01513	0.00088	4e-05	0	0	0	0	0	0
34.75	0	0	0	0	0	0.00074	0.02699	0.17353	0.36681	0.30908	0.10652	0.01544	0.00087	2e-05	0	0	0	0	0	0
34.8	0	0	0	0	0	0.00083	0.0263	0.16979	0.36663	0.3127	0.10729	0.01543	0.00103	0	0	0	0	0	0	0
34.85	0	0	0	0	0	0.00084	0.02537	0.16637	0.36698	0.31497	0.10822	0.01626	0.00096	3e-05	0	0	0	0	0	0
34.9	0	0	0	0	0	0.0006	0.02506	0.1628	0.36411	0.31624	0.11282	0.01735	0.00097	5e-05	0	0	0	0	0	0
34.95	0	0	0	0	0	0.00064	0.02489	0.16005	0.3595	0.3211	0.11469	0.01798	0.00112	3e-05	0	0	0	0	0	0
35	0	0	0	0	0	0.00076	0.02376	0.15968	0.35944	0.32016	0.11611	0.0189	0.00113	6e-05	0	0	0	0	0	0
35.05	0	0	0	0	0	0.00048	0.02246	0.15596	0.35594	0.32508	0.11976	0.01881	0.00146	5e-05	0	0	0	0	0	0
35.1	0	0	0	0	1e-05	0.00046	0.02281	0.15028	0.3556	0.32759	0.12261	0.01931	0.00132	1e-05	0	0	0	0	0	0
35.15	0	0	0	0	1e-05	0.00053	0.0225	0.15102	0.35161	0.32872	0.12465	0.01954	0.00138	4e-05	0	0	0	0	0	0
35.2	0	0	0	0	0	0.00052	0.02143	0.14709	0.35013	0.33217	0.12662	0.02053	0.00148	3e-05	0	0	0	0	0	0
35.25	0	0	0	0	0	0.00035	0.02031	0.145	0.34735	0.33369	0.12905	0.02267	0.00153	5e-05	0	0	0	0	0	0
35.3	0	0	0	0	0	0.00044	0.02022	0.14167	0.34616	0.33726	0.13071	0.02192	0.00159	3e-05	0	0	0	0	0	0
35.35	0	0	0	0	0	0.00041	0.01828	0.13931	0.34418	0.3389	0.13449	0.02293	0.00147	3e-05	0	0	0	0	0	0
35.4	0	0	0	0	0	0.00041	0.01896	0.13763	0.34079	0.34142	0.13507	0.02391	0.00178	3e-05	0	0	0	0	0	0
35.45	0	0	0	0	0	0.00037	0.01802	0.13487	0.34177	0.33874	0.13923	0.02501	0.00195	4e-05	0	0	0	0	0	0
35.5	0	0	0	0	0	0.00026	0.01716	0.13348	0.33997	0.34243	0.13909	0.0255	0.00203	8e-05	0	0	0	0	0	0
35.55	0	0	0	0	0	0.00034	0.01669	0.12995	0.33572	0.3449	0.14412	0.02592	0.00231	5e-05	0	0	0	0	0	0
35.6	0	0	0	0	0	0.00033	0.01614	0.12791	0.33449	0.34578	0.14618	0.0271	0.00201	6e-05	0	0	0	0	0	0
35.65	0	0	0	0	0	0.00032	0.01628	0.12315	0.33292	0.34713	0.15066	0.02749	0.00201	4e-05	0	0	0	0	0	0
35.7	0	0	0	0	0	0.00028	0.01501	0.12244	0.33009	0.34791	0.15299	0.02889	0.00233	6e-05	0	0	0	0	0	0
35.75	0	0	0	0	0	0.00025	0.0147	0.1202	0.32658	0.35182	0.15581	0.02824	0.00229	0.00011	0	0	0	0	0	0
35.8	0	0	0	0	0	0.0003	0.01433	0.1205	0.32074	0.35338	0.15833	0.02967	0.00263	0.00011	1e-05	0	0	0	0	0
35.85	0	0	0	0	0	0.0003	0.01332	0.11581	0.32171	0.3559	0.15801	0.03222	0.00267	6e-05	0	0	0	0	0	0
35.9	0	0	0	0	1e-05	0.00017	0.01366	0.1135	0.31998	0.35636	0.16089	0.03252	0.0028	0.00011	0	0	0	0	0	0
35.95	0	0	0	0	0	0.00014	0.01332	0.11129	0.31702	0.35886	0.1628	0.03355	0.00293	9e-05	0	0	0	0	0	0
36	0	0	0	0	0	0.00019	0.01247	0.10752	0.31323	0.35852	0.17107	0.03385	0.00306	9e-05	0	0	0	0	0	0
36.05	0	0	0	0	0	0.00028	0.01233	0.10715	0.3091	0.36026	0.17207	0.03546	0.00324	0.0001	1e-05	0	0	0	0	0
36.1	0	0	0	0	0	0.00015	0.01147	0.10515	0.30608	0.36073	0.17612	0.03675	0.00349	6e-05	0	0	0	0	0	0
36.15	0	0	0	0	1e-05	0.00015	0.01147	0.10337	0.30345	0.36421	0.17598	0.03772	0.00351	0.00013	0	0	0	0	0	0
36.2	0	0	0	0	0	0.00018	0.01104	0.1012	0.3055	0.36356	0.1773	0.03745	0.00361	0.00015	1e-05	0	0	0	0	0
36.25	0	0	0	0	0	0.00011	0.01067	0.09799	0.30119	0.36599	0.18221	0.03811	0.00362	0.00011	0	0	0	0	0	0
36.3	0	0	0	0	0	0.00017	0.01001	0.09727	0.30045	0.36391	0.18409	0.03999	0.00392	0.00019	0	0	0	0	0	0
36.35	0	0	0	0	0	0.00021	0.00962	0.09388	0.29568	0.36649	0.1887	0.04113	0.00413	0.00016	0	0	0	0	0	0
36.4	0	0	0	0	0	0.00014	0.00927	0.0915	0.291	0.3675	0.19363	0.04232	0.00443	0.00021	0	0	0	0	0	0
36.45	0	0	0	0	0	0.00012	0.00937	0.09277	0.2912	0.36502	0.19381	0.04308	0.00445	0.00018	0	0	0	0	0	0
36.5	0	0	0	0	0	9e-05	0.00857	0.08836	0.28931	0.3681	0.19493	0.0458	0.00459	0.00024	1e-05	0	0	0	0	0
36.55	0	0	0	0	0	0.0001	0.00838	0.08713	0.28414	0.37255	0.19667	0.04605	0.00474	0.00024	0	0	0	0	0	0
36.6	0	0	0	0	0	6e-05	0.00822	0.08704	0.27675	0.37203	0.20283	0.04786	0.00501	0.0002	0	0	0	0	0	0
36.65	0	0	0	0	0	0.00014	0.00822	0.0832	0.27764	0.3708	0.205	0.0495	0.00506	0.00044	0	0	0	0	0	0
36.7	0	0	0	0	0	7e-05	0.00711	0.08135	0.27637	0.37197	0.20619	0.05071	0.00596	0.00027	0	0	0	0	0	0
36.75	0	0	0	0	0	9e-05	0.00724	0.08041	0.27298	0.3705	0.21141	0.05123	0.00584	0.00029	1e-05	0	0	0	0	0
36.8	0	0	0	0	0	4e-05	0.00698	0.07844	0.26926	0.37139	0.2149	0.05276	0.00597	0.00025	1e-05	0	0	0	0	0
36.85	0	0	0	0	0	9e-05	0.00655	0.07568	0.26764	0.37322	0.21615	0.05434	0.00594	0.00037	2e-05	0	0	0	0	0
36.9	0	0	0	0	0	6e-05	0.00634	0.07644	0.26525	0.37224	0.21761	0.05522	0.00658	0.00026	0	0	0	0	0	0
36.95	0	0	0	0	0	6e-05	0.00656	0.07388	0.26019	0.37416	0.22064	0.05787	0.00628	0.00035	1e-05	0	0	0	0	0
37	0	0	0	0	0	8e-05	0.00584	0.07183	0.25858	0.37458	0.22348	0.05838	0.00686	0.00036	1e-05	0	0	0	0	0
37.05	0	0	0	0	0	4e-05	0.00622	0.06873	0.25476	0.37517	0.22826	0.05943	0.00696	0.0004	3e-05	0	0	0	0	0
37.1	0	0	0	0	0	6e-05	0.00567	0.06775	0.25494	0.37197	0.23011	0.06161	0.00742	0.00047	0	0	0	0	0	0
37.15	0	0	0	0	0	9e-05	0.00567	0.06526	0.2498	0.37475	0.23393	0.06246	0.00767	0.00037	0	0	0	0	0	0
37.2	0	0	0	0	0	4e-05	0.00553	0.06491	0.24752	0.3719	0.23493	0.06645	0.00827	0.00042	3e-05	0	0	0	0	0
37.25	0	0	0	0	0	7e-05	0.00521	0.06293	0.24378	0.37503	0.2367	0.06683	0.00884	0.00061	0	0	0	0	0	0
37.3	0	0	0	0	0	6e-05	0.00479	0.06249	0.24267	0.37341	0.23953	0.06798	0.00861	0.00046	0	0	0	0	0	0
37.35	0	0	0	0	0	5e-05	0.00423	0.06041	0.24199	0.37261	0.24054	0.06999	0.0097	0.00046	2e-05	0	0	0	0	0
37.4	0	0	0	0	0	6e-05	0.00432	0.06011	0.23721	0.37272	0.24476	0.07103	0.00925	0.00054	0	0	0	0	0	0
37.45	0	0	0	0	0	9e-05	0.00417	0.05783	0.2292	0.37321	0.25204	0.07276	0.01007	0.00061	2e-05	0	0	0	0	0
37.5	0	0	0	0	0	6e-05	0.00447	0.05662	0.23045	0.37113	0.25292	0.07364	0.01016	0.00054	1e-05	0	0	0	0	0
37.55	0	0	0	0	0	2e-05	0.00427	0.05473	0.22665	0.37096	0.25608	0.07501	0.01169	0.00056	3e-05	0	0	0	0	0
37.6	0	0	0	0	0	5e-05	0.00397	0.05395	0.22532	0.36842	0.25887	0.07741	0.01137	0.0006	4e-05	0	0	0	0	0
37.65	0	0	0	0	0	3e-05	0.00354	0.05331	0.22067	0.37001	0.26116	0.07941	0.01121	0.00064	2e-05	0	0	0	0	0
37.7	0	0	0	0	0	1e-05	0.0033	0.05099	0.21974	0.3664	0.26549	0.08165	0.01153	0.00089	0	0	0	0	0	0
37.75	0	0	0	0	0	3e-05	0.00328	0.05023	0.21612	0.36679	0.26529	0.08549	0.01189	0.00085	3e-05	0	0	0	0	0
37.8	0	0	0	0	0	2e-05	0.00307	0.0498	0.21301	0.37002	0.26582	0.08467	0.01258	0.00099	2e-05	0	0	0	0	0
37.85	0	0	0	0	0	1e-05	0.00303	0.04852	0.20982	0.36735	0.26914	0.08795	0.01336	0.00078	4e-05	0	0	0	0	0
37.9	0	0	0	0	0	1e-05	0.00275	0.04759	0.20785	0.36553	0.27391	0.08768	0.01376	0.00084	8e-05	0	0	0	0	0
37.95	0	0	0	0	0	4e-05	0.00291	0.04377	0.20575	0.3666	0.27629	0.08973	0.01391	0.00096	4e-05	0	0	0	0	0
38	0	0	0	0	0	1e-05	0.00268	0.04369	0.20172	0.36382	0.27982	0.09229	0.01511	0.00083	3e-05	0	0	0	0	0
38.05	0	0	0	0	0	3e-05	0.00275	0.04353	0.20107	0.36278	0.27895	0.09482	0.01486	0.00119	2e-05	0	0	0	0	0
38.1	0	0	0	0	0	1e-05	0.00232	0.04279	0.19563	0.36223	0.283	0.09731	0.01566	0.00101	4e-05	0	0	0	0	0
38.15	0	0	0	0	0	2e-05	0.00205	0.04124	0.19208	0.36302	0.28662	0.09799	0.01575	0.00116	7e-05	0	0	0	0	0
38.2	0	0	0	0	0	1e-05	0.00214	0.03949	0.19196	0.35871	0.28848	0.10164	0.01637	0.00117	3e-05	0	0	0	0	0
38.25	0	0	0	0	0	2e-05	0.00198	0.03844	0.1915	0.35861	0.28829	0.10301	0.01674	0.00139	2e-05	0	0	0	0	0
38.3	0	0	0	0	0	4e-05	0.0021	0.03763	0.18827	0.35551	0.29014	0.1076	0.01714	0.0015	7e-05	0	0	0	0	0
38.35	0	0	0	0	0	0	0.00193	0.03692	0.18396	0.35761	0.29323	0.1075	0.0175	0.00129	6e-05	0	0	0	0	0
38.4	0	0	0	0	0	1e-05	0.00173	0.03583	0.17957	0.35667	0.29588	0.11039	0.01867	0.00121	4e-05	0	0	0	0	0
38.45	0	0	0	0	0	4e-05	0.00189	0.03451	0.17705	0.35411	0.3013	0.11057	0.01904	0.00142	7e-05	0	0	0	0	0
38.5	0	0	0	0	0	2e-05	0.00188	0.03421	0.17593	0.35111	0.30155	0.11379	0.01997	0.00151	3e-05	0	0	0	0	0
38.55	0	0	0	0	0	2e-05	0.00158	0.03399	0.17231	0.35213	0.30331	0.11452	0.02044	0.00161	9e-05	0	0	0	0	0
38.6	0	0	0	0	0	0	0.00146	0.03178	0.16884	0.34982	0.30639	0.11884	0.02116	0.00167	4e-05	0	0	0	0	0
38.65	0	0	0	0	0	1e-05	0.00142	0.03229	0.16585	0.34829	0.30822	0.12013	0.02208	0.00162	9e-05	0	0	0	0	0
38.7	0	0	0	0	0	2e-05	0.0015	0.03071	0.16624	0.34456	0.31026	0.12287	0.02188	0.00194	2e-05	0	0	0	0	0
38.75	0	0	0	0	0	1e-05	0.00125	0.03018	0.16403	0.34343	0.31129	0.12499	0.02287	0.0019	4e-05	0	1e-05	0	0	0
38.8	0	0	0	0	0	0	0.0011	0.02876	0.16079	0.34312	0.31474	0.12564	0.02396	0.00187	2e-05	0	0	0	0	0
38.85	0	0	0	0	0	0	0.00108	0.02827	0.15807	0.34325	0.31507	0.1281	0.024	0.00209	7e-05	0	0	0	0	0
38.9	0	0	0	0	0	0	0.00118	0.02782	0.15359	0.33876	0.32093	0.13033	0.0252	0.00213	6e-05	0	0	0	0	0
38.95	0	0	0	0	0	1e-05	0.00112	0.02661	0.15315	0.33576	0.31832	0.13586	0.0267	0.00241	6e-05	0	0	0	0	0
39	0	0	0	0	0	1e-05	0.00122	0.02608	0.15168	0.33448	0.32193	0.13556	0.02664	0.00231	8e-05	1e-05	0	0	0	0
39.05	0	0	0	0	0	0	0.001	0.02572	0.14663	0.3353	0.32215	0.13889	0.02742	0.00277	0.0001	2e-05	0	0	0	0
39.1	0	0	0	0	0	0	0.00098	0.02458	0.14652	0.33024	0.32579	0.14036	0.02874	0.00268	0.00011	0	0	0	0	0
39.15	0	0	0	0	0	0	0.00095	0.02427	0.14369	0.32579	0.32849	0.14378	0.02975	0.00318	0.0001	0	0	0	0	0
39.2	0	0	0	0	0	0	0.00106	0.02361	0.13898	0.32588	0.33051	0.14562	0.03117	0.00308	9e-05	0	0	0	0	0
39.25	0	0	0	0	0	1e-05	0.00072	0.02306	0.13946	0.32167	0.33303	0.14837	0.03037	0.00317	0.00014	0	0	0	0	0
39.3	0	0	0	0	0	0	0.00076	0.02223	0.13598	0.3264	0.32857	0.15037	0.03233	0.0032	0.00016	0	0	0	0	0
39.35	0	0	0	0	0	0	0.00086	0.0209	0.13332	0.32114	0.33456	0.15236	0.0333	0.00339	0.00016	1e-05	0	0	0	0
39.4	0	0	0	0	0	1e-05	0.00085	0.02092	0.13095	0.31693	0.33686	0.15614	0.03366	0.00348	0.0002	0	0	0	0	0
39.45	0	0	0	0	0	0	0.00074	0.02033	0.12726	0.32164	0.33297	0.15751	0.03583	0.00347	0.00024	1e-05	0	0	0	0
39.5	0	0	0	0	0	0	0.00064	0.01938	0.12725	0.31155	0.3404	0.16177	0.03522	0.00367	0.00012	0	0	0	0	0
39.55	0	0	0	0	0	1e-05	0.00059	0.01931	0.12536	0.3112	0.3393	0.16396	0.03622	0.00387	0.00018	0	0	0	0	0
39.6	0	0	0	0	0	1e-05	0.00057	0.01838	0.12326	0.31162	0.3393	0.16382	0.03883	0.00399	0.00021	1e-05	0	0	0	0
39.65	0	0	0	0	0	0	0.0007	0.01812	0.12045	0.30956	0.34144	0.16639	0.03895	0.00424	0.00015	0	0	0	0	0
39.7	0	0	0	0	0	0	0.00052	0.01668	0.11832	0.30584	0.3433	0.17061	0.04002	0.00442	0.00029	0	0	0	0	0
39.75	0	0	0	0	0	0	0.00049	0.01695	0.11865	0.30284	0.34318	0.17152	0.04133	0.00482	0.00022	0	0	0	0	0
39.8	0	0	0	0	0	1e-05	0.00048	0.01548	0.11545	0.30086	0.34518	0.17532	0.04222	0.00472	0.00028	0	0	0	0	0
39.85	0	0	0	0	0	0	0.00041	0.01611	0.11249	0.29965	0.34348	0.17905	0.04372	0.00478	0.0003	1e-05	0	0	0	0
39.9	0	0	0	0	0	0	0.00043	0.01582	0.10979	0.29558	0.34644	0.18217	0.04445	0.00505	0.00027	0	0	0	0	0
39.95	0	0	0	0	0	1e-05	0.0004	0.01545	0.10933	0.29616	0.34699	0.18039	0.04527	0.00573	0.00026	1e-05	0	0	0	0
40	0	0	0	0	0	1e-05	0.00034	0.01491	0.10607	0.29374	0.34635	0.18631	0.04629	0.00569	0.00029	0	0	0	0	0
40.05	0	0	0	0	0	0	0.00035	0.0138	0.10533	0.2893	0.3478	0.18899	0.04815	0.00602	0.00026	0	0	0	0	0
40.1	0	0	0	0	0	1e-05	0.00037	0.01397	0.10179	0.28648	0.35153	0.18967	0.05025	0.00552	0.00041	0	0	0	0	0
40.15	0	0	0	0	0	0	0.00028	0.01302	0.10052	0.28315	0.34972	0.19587	0.05094	0.00617	0.00031	1e-05	1e-05	0	0	0
40.2	0	0	0	0	0	1e-05	0.00029	0.01309	0.09949	0.28126	0.35256	0.19395	0.05273	0.00624	0.00036	2e-05	0	0	0	0
40.25	0	0	0	0	0	0	0.00034	0.01265	0.09646	0.27881	0.35226	0.19946	0.05287	0.00674	0.00041	0	0	0	0	0
40.3	0	0	0	0	0	0	0.00032	0.01193	0.09468	0.27761	0.35327	0.20201	0.0527	0.00708	0.0004	0	0	0	0	0
40.35	0	0	0	0	0	0	0.00026	0.01119	0.09393	0.27635	0.35297	0.20362	0.05396	0.00721	0.00047	4e-05	0	0	0	0
40.4	0	0	0	0	0	0	0.00027	0.01141	0.08961	0.27371	0.35347	0.20759	0.05625	0.00729	0.00038	2e-05	0	0	0	0
40.45	0	0	0	0	0	0	0.00019	0.01117	0.09003	0.26794	0.35462	0.2098	0.05849	0.00735	0.00039	2e-05	0	0	0	0
40.5	0	0	0	0	0	0	0.0002	0.01075	0.08817	0.27015	0.35301	0.20894	0.06012	0.0081	0.00054	2e-05	0	0	0	0
40.55	0	0	0	0	0	0	0.00032	0.0103	0.08663	0.26512	0.35374	0.21392	0.06129	0.00806	0.00059	3e-05	0	0	0	0
40.6	0	0	0	0	0	0	0.00028	0.01009	0.08312	0.25906	0.35732	0.21831	0.0628	0.00853	0.00048	1e-05	0	0	0	0
40.65	0	0	0	0	0	0	0.00019	0.00969	0.08013	0.25958	0.35688	0.21919	0.06468	0.00899	0.00063	4e-05	0	0	0	0
40.7	0	0	0	0	0	0	0.00025	0.00995	0.0802	0.25578	0.35809	0.22093	0.0657	0.00853	0.00054	3e-05	0	0	0	0
40.75	0	0	0	0	0	0	0.00017	0.00923	0.07972	0.25402	0.35417	0.22473	0.06758	0.00978	0.00058	2e-05	0	0	0	0
40.8	0	0	0	0	0	0	0.00019	0.00868	0.07845	0.25063	0.35693	0.2261	0.0686	0.00964	0.00076	2e-05	0	0	0	0
40.85	0	0	0	0	0	0	9e-05	0.00837	0.07606	0.25059	0.35565	0.22897	0.06951	0.01001	0.00073	1e-05	1e-05	0	0	0
40.9	0	0	0	0	0	0	0.00017	0.00828	0.0742	0.2467	0.35661	0.2321	0.07109	0.01018	0.00062	5e-05	0	0	0	0
40.95	0	0	0	0	0	0	9e-05	0.00795	0.07212	0.24354	0.35713	0.23549	0.07228	0.01069	0.00068	3e-05	0	0	0	0
41	0	0	0	0	0	0	0.00013	0.00774	0.07062	0.2405	0.35782	0.23659	0.07518	0.01062	0.00079	1e-05	0	0	0	0
41.05	0	0	0	0	0	0	0.00014	0.00754	0.07031	0.23948	0.35291	0.23977	0.07729	0.01168	0.00087	1e-05	0	0	0	0
41.1	0	0	0	0	0	0	0.00013	0.0076	0.06813	0.2383	0.35146	0.24252	0.07862	0.01237	0.00084	3e-05	0	0	0	0
41.15	0	0	0	0	0	0	0.00011	0.00685	0.06706	0.23469	0.35425	0.24402	0.07905	0.01286	0.00108	3e-05	0	0	0	0
41.2	0	0	0	0	0	0	0.00013	0.00687	0.06652	0.22815	0.3567	0.24643	0.08089	0.01345	0.00086	0	0	0	0	0
41.25	0	0	0	0	0	0	0.00012	0.00622	0.06457	0.22826	0.35403	0.24851	0.08367	0.01344	0.00113	5e-05	0	0	0	0
41.3	0	0	0	0	0	0	0.00018	0.00603	0.06114	0.22578	0.35715	0.25046	0.08491	0.01328	0.001	7e-05	0	0	0	0
41.35	0	0	0	0	0	1e-05	8e-05	0.00579	0.06198	0.22505	0.35205	0.25286	0.08663	0.01445	0.00104	6e-05	0	0	0	0
41.4	0	0	0	0	0	0	8e-05	0.00566	0.0601	0.21979	0.35578	0.25716	0.08537	0.01478	0.00124	4e-05	0	0	0	0
41.45	0	0	0	0	0	0	8e-05	0.00588	0.05876	0.21829	0.35336	0.25787	0.0894	0.01497	0.00132	7e-05	0	0	0	0
41.5	0	0	0	0	0	0	9e-05	0.00547	0.05821	0.21547	0.35	0.26069	0.09303	0.01576	0.00127	1e-05	0	0	0	0
41.55	0	0	0	0	0	0	0.00014	0.00541	0.05611	0.21387	0.35105	0.26339	0.09267	0.01591	0.0014	5e-05	0	0	0	0
41.6	0	0	0	0	0	0	0.0001	0.00542	0.05486	0.20982	0.34938	0.26457	0.09734	0.01706	0.00139	6e-05	0	0	0	0
41.65	0	0	0	0	0	0	0.0001	0.00476	0.05327	0.20987	0.34804	0.26872	0.09656	0.01711	0.00152	5e-05	0	0	0	0
41.7	0	0	0	0	0	0	2e-05	0.00502	0.05284	0.20575	0.3498	0.2689	0.09829	0.01775	0.00153	0.0001	0	0	0	0
41.75	0	0	0	0	0	0	7e-05	0.00433	0.05237	0.20387	0.34847	0.27061	0.1006	0.01809	0.00155	4e-05	0	0	0	0
41.8	0	0	0	0	0	0	8e-05	0.00436	0.04961	0.20205	0.34863	0.27305	0.1021	0.01839	0.00164	9e-05	0	0	0	0
41.85	0	0	0	0	0	0	7e-05	0.00375	0.04969	0.20019	0.34317	0.27525	0.10563	0.0204	0.00177	8e-05	0	0	0	0
41.9	0	0	0	0	0	0	6e-05	0.00407	0.04806	0.19417	0.34592	0.28046	0.10586	0.01958	0.00173	9e-05	0	0	0	0
41.95	0	0	0	0	0	0	3e-05	0.00376	0.04699	0.19318	0.34211	0.28372	0.10761	0.02062	0.00191	7e-05	0	0	0	0
42	0	0	0	0	0	0	3e-05	0.00362	0.04623	0.18853	0.34345	0.28304	0.1118	0.02131	0.00192	6e-05	1e-05	0	0	0
42.05	0	0	0	0	0	0	2e-05	0.00363	0.04441	0.18576	0.34133	0.2876	0.11278	0.02237	0.00196	0.00014	0	0	0	0
42.1	0	0	0	0	0	0	5e-05	0.00358	0.04327	0.18532	0.34144	0.28901	0.11239	0.02281	0.002	0.00013	0	0	0	0
42.15	0	0	0	0	0	0	0.0001	0.00329	0.04268	0.18303	0.33863	0.28951	0.11754	0.02281	0.00229	0.00012	0	0	0	0
42.2	0	0	0	0	0	0	1e-05	0.00316	0.04134	0.17972	0.33708	0.2939	0.11836	0.02373	0.00254	0.00016	0	0	0	0
42.25	0	0	0	0	0	0	2e-05	0.00285	0.04008	0.17746	0.3384	0.29248	0.12091	0.02519	0.00251	0.0001	0	0	0	0
42.3	0	0	0	0	0	0	2e-05	0.00285	0.03973	0.17532	0.33414	0.29668	0.12303	0.02534	0.00272	0.00017	0	0	0	0
42.35	0	0	0	0	0	0	0	0.00288	0.03845	0.17316	0.33374	0.2989	0.12438	0.02592	0.00246	0.00011	0	0	0	0
42.4	0	0	0	0	0	0	4e-05	0.00266	0.037	0.1708	0.33293	0.29912	0.12808	0.02653	0.00274	0.0001	0	0	0	0
42.45	0	0	0	0	0	0	6e-05	0.0026	0.03746	0.16921	0.32951	0.30032	0.13095	0.02716	0.00256	0.00016	1e-05	0	0	0
42.5	0	0	0	0	0	0	1e-05	0.0024	0.03612	0.16629	0.331	0.30065	0.13225	0.02803	0.00312	0.00013	0	0	0	0
42.55	0	0	0	0	0	0	1e-05	0.00247	0.03438	0.16136	0.32805	0.3056	0.13626	0.02861	0.00312	0.00013	1e-05	0	0	0
42.6	0	0	0	0	0	0	2e-05	0.00235	0.03361	0.16083	0.32868	0.30621	0.13558	0.02925	0.0033	0.00017	0	0	0	0
42.65	0	0	0	0	0	0	4e-05	0.00221	0.03366	0.15882	0.32593	0.30718	0.13886	0.03006	0.00309	0.00014	1e-05	0	0	0
42.7	0	0	0	0	0	0	1e-05	0.00226	0.03217	0.15616	0.32549	0.30978	0.13955	0.03115	0.00324	0.00019	0	0	0	0
42.75	0	0	0	0	0	0	0	0.00187	0.03123	0.1521	0.32523	0.31144	0.14205	0.0322	0.00377	0.00011	0	0	0	0
42.8	0	0	0	0	0	0	1e-05	0.00196	0.03124	0.15283	0.32151	0.31147	0.14388	0.03302	0.00395	0.00013	0	0	0	0
42.85	0	0	0	0	0	0	0	0.00192	0.03045	0.14882	0.31986	0.31393	0.14632	0.0346	0.00378	0.00031	1e-05	0	0	0
42.9	0	0	0	0	0	0	2e-05	0.00194	0.03002	0.14561	0.3171	0.31404	0.15215	0.03494	0.00396	0.00022	0	0	0	0
42.95	0	0	0	0	0	0	1e-05	0.002	0.02913	0.14627	0.31558	0.31467	0.1516	0.03619	0.00421	0.00032	2e-05	0	0	0
43	0	0	0	0	0	0	1e-05	0.00181	0.02849	0.1419	0.31383	0.31904	0.1528	0.03749	0.00424	0.00039	0	0	0	0
43.05	0	0	0	0	0	0	2e-05	0.00172	0.0264	0.14082	0.30924	0.3232	0.15575	0.03806	0.00441	0.00036	2e-05	0	0	0
43.1	0	0	0	0	0	0	1e-05	0.00155	0.02641	0.13979	0.30955	0.31881	0.15921	0.03952	0.00479	0.00035	1e-05	0	0	0
43.15	0	0	0	0	0	0	2e-05	0.00152	0.02568	0.13675	0.30531	0.32305	0.16168	0.0406	0.00514	0.00024	1e-05	0	0	0
43.2	0	0	0	0	0	0	2e-05	0.0015	0.02515	0.13567	0.30699	0.32188	0.16265	0.04093	0.00493	0.00027	1e-05	0	0	0
43.25	0	0	0	0	0	0	1e-05	0.00126	0.02375	0.13229	0.30364	0.32504	0.16572	0.04267	0.00527	0.00033	2e-05	0	0	0
43.3	0	0	0	0	0	0	2e-05	0.00148	0.02385	0.12994	0.29892	0.32769	0.16917	0.04326	0.00535	0.00031	1e-05	0	0	0
43.35	0	0	0	0	0	0	0	0.00116	0.02341	0.1289	0.30272	0.32456	0.16873	0.04442	0.00572	0.00037	1e-05	0	0	0
43.4	0	0	0	0	0	0	1e-05	0.00114	0.02176	0.12431	0.29838	0.3293	0.17299	0.0458	0.00588	0.00042	1e-05	0	0	0
43.45	0	0	0	0	0	0	2e-05	0.00108	0.02183	0.12424	0.29789	0.32581	0.17632	0.04646	0.00589	0.00044	2e-05	0	0	0
43.5	0	0	0	0	0	0	0	0.00107	0.02057	0.12286	0.29314	0.3293	0.17737	0.04878	0.00649	0.00042	0	0	0	0
43.55	0	0	0	0	0	0	0	0.00105	0.02159	0.12059	0.29278	0.3315	0.1771	0.04819	0.00682	0.00038	0	0	0	0
43.6	0	0	0	0	0	0	1e-05	0.00104	0.02006	0.118	0.2894	0.33235	0.18312	0.04882	0.00661	0.00059	0	0	0	0
43.65	0	0	0	0	0	0	1e-05	0.001	0.01958	0.11633	0.28773	0.3343	0.1848	0.04911	0.00669	0.00045	0	0	0	0
43.7	0	0	0	0	0	0	3e-05	0.00101	0.01789	0.11232	0.28495	0.33652	0.18799	0.05179	0.00707	0.00043	0	0	0	0
43.75	0	0	0	0	0	0	1e-05	0.00101	0.01857	0.11154	0.28311	0.33418	0.1894	0.05395	0.00765	0.00057	1e-05	0	0	0
43.8	0	0	0	0	0	0	1e-05	0.00093	0.01819	0.10968	0.28108	0.33575	0.1908	0.05576	0.00721	0.00055	4e-05	0	0	0
43.85	0	0	0	0	0	0	2e-05	0.00082	0.01827	0.1094	0.27791	0.334	0.19476	0.05604	0.00812	0.00065	1e-05	0	0	0
43.9	0	0	0	0	0	0	0	0.00078	0.01664	0.10701	0.27673	0.33613	0.19573	0.05783	0.00854	0.00058	3e-05	0	0	0
43.95	0	0	0	0	0	0	0	0.00074	0.01694	0.10459	0.27396	0.33885	0.19721	0.05779	0.00919	0.00073	0	0	0	0
44	0	0	0	0	0	0	0	0.00059	0.01636	0.1032	0.2707	0.3371	0.20234	0.06005	0.00905	0.0006	1e-05	0	0	0
44.05	0	0	0	0	0	0	1e-05	0.00083	0.01543	0.10046	0.26999	0.33615	0.20729	0.05984	0.00924	0.00073	3e-05	0	0	0
44.1	0	0	0	0	0	0	0	0.00067	0.01593	0.10011	0.2693	0.33524	0.20663	0.06139	0.01	0.00071	2e-05	0	0	0
44.15	0	0	0	0	0	0	1e-05	0.00058	0.01507	0.09724	0.26591	0.34155	0.20647	0.06297	0.00941	0.00076	3e-05	0	0	0
44.2	0	0	0	0	0	0	0	0.00055	0.01403	0.09513	0.26332	0.34151	0.2105	0.0639	0.01022	0.00077	6e-05	1e-05	0	0
44.25	0	0	0	0	0	0	0	0.0005	0.0139	0.09383	0.26285	0.33811	0.21424	0.06567	0.01017	0.00072	1e-05	0	0	0
44.3	0	0	0	0	0	0	0	0.00052	0.01369	0.0922	0.259	0.33936	0.2144	0.06886	0.01115	0.00078	4e-05	0	0	0
44.35	0	0	0	0	0	0	0	0.00042	0.01317	0.08992	0.2583	0.33979	0.21799	0.06795	0.01138	0.00104	4e-05	0	0	0
44.4	0	0	0	0	0	0	0	0.00041	0.01254	0.08957	0.25406	0.33885	0.22012	0.07233	0.01116	0.00095	1e-05	0	0	0
44.45	0	0	0	0	0	0	0	0.00056	0.01246	0.08723	0.25109	0.34194	0.22193	0.07149	0.01236	0.0009	4e-05	0	0	0
44.5	0	0	0	0	0	0	0	0.00047	0.01221	0.08334	0.25167	0.33981	0.22452	0.07403	0.01275	0.00114	6e-05	0	0	0
44.55	0	0	0	0	0	0	0	0.0005	0.01198	0.08344	0.24608	0.34145	0.22679	0.07602	0.01269	0.00099	6e-05	0	0	0
44.6	0	0	0	0	0	0	0	0.00039	0.0114	0.08264	0.2445	0.34262	0.2274	0.0765	0.01327	0.00125	3e-05	0	0	0
44.65	0	0	0	0	0	0	0	0.00041	0.01146	0.08174	0.24326	0.33894	0.22997	0.07962	0.01334	0.00119	7e-05	0	0	0
44.7	0	0	0	0	0	0	0	0.00042	0.01018	0.07996	0.24043	0.3412	0.23149	0.08044	0.01447	0.00137	4e-05	0	0	0
44.75	0	0	0	0	0	0	0	0.00034	0.01097	0.07718	0.23811	0.33758	0.23797	0.0822	0.01441	0.00122	2e-05	0	0	0
44.8	0	0	0	0	0	0	0	0.00036	0.01034	0.07709	0.23503	0.34016	0.23809	0.08226	0.01527	0.00128	0.00012	0	0	0
44.85	0	0	0	0	0	0	0	0.00046	0.00967	0.07408	0.2324	0.33935	0.24146	0.0851	0.01584	0.0016	4e-05	0	0	0
44.9	0	0	0	0	0	0	0	0.00032	0.00979	0.07192	0.2333	0.34176	0.23864	0.08747	0.01521	0.00151	8e-05	0	0	0
44.95	0	0	0	0	0	0	0	0.00022	0.00928	0.0707	0.22808	0.33913	0.24502	0.08969	0.01632	0.00149	7e-05	0	0	0
45	0	0	0	0	0	0	0	0.00025	0.00917	0.07147	0.22619	0.33858	0.24658	0.08969	0.01639	0.00154	0.00014	0	0	0
45.05	0	0	0	0	0	0	0	0.00025	0.00881	0.06964	0.2222	0.34027	0.24869	0.09143	0.01689	0.00176	6e-05	0	0	0
45.1	0	0	0	0	0	0	0	0.00029	0.00809	0.06901	0.22154	0.33694	0.24982	0.0941	0.01823	0.00188	0.0001	0	0	0
45.15	0	0	0	0	0	0	0	0.0002	0.00801	0.06632	0.2199	0.33667	0.25374	0.09503	0.01824	0.00179	9e-05	1e-05	0	0
45.2	0	0	0	0	0	0	0	0.00021	0.00764	0.06629	0.21268	0.33879	0.25661	0.09718	0.01878	0.00172	0.0001	0	0	0
45.25	0	0	0	0	0	0	0	0.00021	0.00743	0.06316	0.21721	0.33349	0.25773	0.09882	0.01989	0.00199	6e-05	1e-05	0	0
45.3	0	0	0	0	0	0	0	0.00022	0.00709	0.0631	0.21173	0.33663	0.25894	0.10047	0.0198	0.00192	0.0001	0	0	0
45.35	0	0	0	0	0	0	0	0.00019	0.00738	0.06024	0.20942	0.3361	0.26168	0.10232	0.02053	0.00204	0.0001	0	0	0
45.4	0	0	0	0	0	0	0	0.00015	0.00636	0.05968	0.20675	0.33584	0.26463	0.10342	0.021	0.00209	8e-05	0	0	0
45.45	0	0	0	0	0	0	0	0.00018	0.00661	0.06037	0.2053	0.33347	0.26491	0.10495	0.02167	0.00232	0.00022	0	0	0
45.5	0	0	0	0	0	0	0	0.00016	0.00622	0.0574	0.20283	0.33359	0.26667	0.10768	0.02289	0.0024	0.00016	0	0	0
45.55	0	0	0	0	0	0	0	0.00015	0.00648	0.0569	0.19742	0.33412	0.2692	0.10991	0.0234	0.00228	0.00014	0	0	0
45.6	0	0	0	0	0	0	0	0.00015	0.00597	0.05594	0.19838	0.33223	0.27006	0.11064	0.02386	0.00266	0.0001	1e-05	0	0
45.65	0	0	0	0	0	0	0	0.00012	0.00581	0.05332	0.19631	0.33224	0.27247	0.11213	0.02465	0.00274	0.0002	1e-05	0	0
45.7	0	0	0	0	0	0	0	0.00011	0.00589	0.05145	0.19577	0.33027	0.2737	0.11474	0.02532	0.00263	0.00011	1e-05	0	0
45.75	0	0	0	0	0	0	0	0.00012	0.0054	0.05162	0.18961	0.33099	0.27633	0.11705	0.02594	0.00276	0.00018	0	0	0
45.8	0	0	0	0	0	0	0	0.00011	0.00577	0.05106	0.18825	0.32535	0.27936	0.12111	0.02596	0.00292	0.0001	1e-05	0	0
45.85	0	0	0	0	0	0	0	0.00015	0.00532	0.04813	0.18591	0.32825	0.28191	0.12059	0.02617	0.00335	0.0002	2e-05	0	0
45.9	0	0	0	0	0	0	0	0.00013	0.00484	0.04844	0.18483	0.32714	0.28081	0.12202	0.02829	0.00335	0.00015	0	0	0
45.95	0	0	0	0	0	0	0	0.00015	0.00471	0.04796	0.18172	0.322	0.28527	0.12561	0.02899	0.00339	0.00019	1e-05	0	0
46	0	0	0	0	0	0	0	9e-05	0.00463	0.04594	0.18016	0.32264	0.28769	0.12553	0.02945	0.00367	0.00019	1e-05	0	0
46.05	0	0	0	0	0	0	1e-05	7e-05	0.00473	0.04581	0.17603	0.32355	0.28781	0.12804	0.03015	0.00354	0.00026	0	0	0
46.1	0	0	0	0	0	0	0	6e-05	0.00446	0.04389	0.17428	0.32131	0.28797	0.13271	0.0311	0.00396	0.00025	1e-05	0	0
46.15	0	0	0	0	0	0	1e-05	9e-05	0.00394	0.04405	0.17362	0.32039	0.29044	0.13147	0.03182	0.00399	0.00018	0	0	0
46.2	0	0	0	0	0	0	0	0.00012	0.00403	0.04218	0.17099	0.31823	0.29154	0.13614	0.03231	0.00405	0.00038	3e-05	0	0
46.25	0	0	0	0	0	0	0	4e-05	0.00392	0.04111	0.16766	0.31679	0.29446	0.13751	0.03364	0.00453	0.00033	1e-05	0	0
46.3	0	0	0	0	0	0	0	6e-05	0.0038	0.04029	0.16529	0.31471	0.297	0.14048	0.03349	0.00441	0.00045	2e-05	0	0
46.35	0	0	0	0	0	0	0	7e-05	0.00376	0.03968	0.16443	0.31431	0.29707	0.14096	0.03519	0.00421	0.00032	0	0	0
46.4	0	0	0	0	0	0	0	2e-05	0.00363	0.03768	0.15993	0.31359	0.2986	0.14551	0.0359	0.00482	0.0003	2e-05	0	0
46.45	0	0	0	0	0	0	0	6e-05	0.00327	0.03737	0.15858	0.3101	0.30114	0.14762	0.03668	0.00483	0.00034	1e-05	0	0
46.5	0	0	0	0	0	0	0	0.0001	0.00324	0.03785	0.15564	0.31249	0.30015	0.14773	0.03789	0.00444	0.00045	2e-05	0	0
46.55	0	0	0	0	0	0	0	6e-05	0.00338	0.03573	0.1566	0.30701	0.30324	0.15041	0.03819	0.00499	0.00038	1e-05	0	0
46.6	0	0	0	0	0	0	0	7e-05	0.00305	0.03617	0.15312	0.30766	0.30329	0.15064	0.03996	0.00558	0.00045	1e-05	0	0
46.65	0	0	0	0	0	0	0	2e-05	0.00278	0.03474	0.14977	0.30668	0.30579	0.15436	0.03994	0.00558	0.00034	0	0	0
46.7	0	0	0	0	0	0	0	4e-05	0.00307	0.03397	0.1488	0.30282	0.30751	0.15654	0.04101	0.00593	0.0003	1e-05	0	0
46.75	0	0	0	0	0	0	0	2e-05	0.0029	0.03164	0.14631	0.30352	0.30881	0.15819	0.04261	0.00553	0.00043	4e-05	0	0
46.8	0	0	0	0	0	0	0	5e-05	0.00255	0.03091	0.14521	0.30362	0.30651	0.16049	0.04398	0.00618	0.00048	2e-05	0	0
46.85	0	0	0	0	0	0	0	4e-05	0.00256	0.03048	0.1433	0.29883	0.31157	0.16283	0.0431	0.00657	0.00072	0	0	0
46.9	0	0	0	0	0	0	0	5e-05	0.00239	0.03158	0.14012	0.29727	0.31051	0.16591	0.04541	0.00634	0.00042	0	0	0
46.95	0	0	0	0	0	0	0	2e-05	0.0019	0.02946	0.13686	0.29486	0.31345	0.16895	0.04735	0.00663	0.0005	2e-05	0	0
47	0	0	0	0	0	0	0	6e-05	0.00232	0.0303	0.13733	0.29163	0.31393	0.16878	0.04793	0.00707	0.00064	1e-05	0	0
47.05	0	0	0	0	0	0	0	4e-05	0.00223	0.02801	0.13429	0.29164	0.31352	0.17433	0.04834	0.00699	0.00061	0	0	0
47.1	0	0	0	0	0	0	0	1e-05	0.00202	0.02797	0.13355	0.29025	0.31594	0.17187	0.05012	0.00766	0.00061	0	0	0
47.15	0	0	0	0	0	0	0	3e-05	0.00186	0.02755	0.13142	0.28683	0.31711	0.17593	0.05075	0.00785	0.00066	1e-05	0	0
47.2	0	0	0	0	0	0	0	4e-05	0.00187	0.02688	0.12855	0.28746	0.31756	0.17654	0.05225	0.00808	0.00074	3e-05	0	0
47.25	0	0	0	0	0	0	0	1e-05	0.00179	0.02572	0.12679	0.28528	0.31835	0.17929	0.054	0.00811	0.0006	6e-05	0	0
47.3	0	0	0	0	0	0	0	2e-05	0.00176	0.02497	0.12485	0.28277	0.32057	0.18261	0.05355	0.00825	0.00063	2e-05	0	0
47.35	0	0	0	0	0	0	0	3e-05	0.00165	0.02416	0.1224	0.28118	0.32005	0.18503	0.05579	0.00886	0.00085	0	0	0
47.4	0	0	0	0	0	0	0	3e-05	0.00186	0.0243	0.12039	0.279	0.32185	0.18652	0.05638	0.00889	0.00072	6e-05	0	0
47.45	0	0	0	0	0	0	0	5e-05	0.00171	0.02385	0.1186	0.27501	0.32249	0.19029	0.05772	0.00949	0.00078	1e-05	0	0
47.5	0	0	0	0	0	0	0	6e-05	0.00158	0.02272	0.11812	0.27533	0.32054	0.19234	0.05849	0.00987	0.0009	5e-05	0	0
47.55	0	0	0	0	0	0	0	1e-05	0.00144	0.02076	0.11596	0.27417	0.32348	0.19283	0.06039	0.01012	0.00081	3e-05	0	0
47.6	0	0	0	0	0	0	0	2e-05	0.00151	0.02205	0.11245	0.27332	0.32202	0.19595	0.06165	0.01014	0.00085	4e-05	0	0
47.65	0	0	0	0	0	0	0	1e-05	0.00127	0.02039	0.11173	0.2712	0.32139	0.19988	0.06168	0.01144	0.00099	2e-05	0	0
47.7	0	0	0	0	0	0	0	2e-05	0.0013	0.02094	0.10918	0.26931	0.32413	0.19759	0.06494	0.01159	0.00095	5e-05	0	0
47.75	0	0	0	0	0	0	0	1e-05	0.00114	0.01982	0.10941	0.26588	0.3232	0.20225	0.06604	0.01115	0.00107	3e-05	0	0
47.8	0	0	0	0	0	0	0	0	0.00127	0.01971	0.1071	0.2631	0.32293	0.20589	0.0672	0.01182	0.00093	5e-05	0	0
47.85	0	0	0	0	0	0	0	2e-05	0.00113	0.0187	0.10268	0.25935	0.32675	0.20774	0.07003	0.01226	0.00127	7e-05	0	0
47.9	0	0	0	0	0	0	0	1e-05	0.00124	0.01789	0.10432	0.26003	0.32486	0.20806	0.06956	0.01277	0.0012	6e-05	0	0
47.95	0	0	0	0	0	0	0	0	0.00102	0.01756	0.10085	0.25588	0.32612	0.21104	0.0723	0.01365	0.0015	8e-05	0	0
48	0	0	0	0	0	0	0	0	0.00118	0.01709	0.09933	0.2571	0.32452	0.21368	0.07284	0.01317	0.00108	1e-05	0	0
48.05	0	0	0	0	0	0	0	1e-05	0.001	0.01686	0.09751	0.25464	0.32564	0.21557	0.07377	0.01351	0.00139	0.0001	0	0
48.1	0	0	0	0	0	0	0	2e-05	0.00088	0.01592	0.09461	0.25135	0.32728	0.21858	0.07548	0.01437	0.00141	0.0001	0	0
48.15	0	0	0	0	0	0	0	2e-05	0.00078	0.01572	0.09394	0.24742	0.32789	0.21999	0.07763	0.01506	0.00147	8e-05	0	0
48.2	0	0	0	0	0	0	0	1e-05	0.00096	0.01591	0.09255	0.24753	0.32656	0.21988	0.08036	0.01473	0.00146	5e-05	0	0
48.25	0	0	0	0	0	0	0	3e-05	0.00084	0.01487	0.09161	0.24562	0.32651	0.22321	0.07996	0.01562	0.00167	6e-05	0	0
48.3	0	0	0	0	0	0	0	0	0.00085	0.01438	0.08892	0.24108	0.32909	0.22533	0.08285	0.01586	0.0015	0.00013	1e-05	0
48.35	0	0	0	0	0	0	0	0	0.00076	0.01385	0.08902	0.23953	0.32736	0.22904	0.08227	0.01643	0.00163	0.00011	0	0
48.4	0	0	0	0	0	0	0	1e-05	0.00096	0.01447	0.08779	0.2382	0.32871	0.22797	0.08336	0.0167	0.00176	7e-05	0	0
48.45	0	0	0	0	0	0	0	1e-05	0.00059	0.01344	0.08394	0.23426	0.32886	0.23204	0.08721	0.01774	0.00181	0.0001	0	0
48.5	0	0	0	0	0	0	0	1e-05	0.00058	0.01312	0.08366	0.23343	0.32609	0.23482	0.08832	0.01791	0.00195	0.00011	0	0
48.55	0	0	0	0	0	0	0	1e-05	0.00067	0.01267	0.08113	0.23224	0.32891	0.23436	0.0895	0.01823	0.00211	0.00016	1e-05	0
48.6	0	0	0	0	0	0	0	1e-05	0.00077	0.01231	0.08031	0.22805	0.32665	0.23925	0.09177	0.01878	0.00202	7e-05	1e-05	0
48.65	0	0	0	0	0	0	0	0	0.00067	0.01183	0.07748	0.2294	0.32528	0.24101	0.09227	0.01975	0.00219	0.00011	1e-05	0
48.7	0	0	0	0	0	0	0	1e-05	0.00073	0.01198	0.076	0.22479	0.32698	0.24224	0.09466	0.02012	0.00238	9e-05	2e-05	0
48.75	0	0	0	0	0	0	0	1e-05	0.00062	0.01161	0.07544	0.22196	0.3279	0.24292	0.09664	0.02026	0.00248	0.00016	0	0
48.8	0	0	0	0	0	0	0	0	0.00054	0.01131	0.07741	0.21863	0.32646	0.24385	0.09755	0.02184	0.00225	0.00015	1e-05	0
48.85	0	0	0	0	0	0	0	0	0.00065	0.01062	0.07226	0.22052	0.32362	0.24802	0.1007	0.02082	0.00267	0.00012	0	0
48.9	0	0	0	0	0	0	0	0	0.0005	0.0105	0.07257	0.21831	0.32339	0.24827	0.10141	0.02247	0.00241	0.00017	0	0
48.95	0	0	0	0	0	0	0	0	0.00046	0.01057	0.07022	0.21555	0.3227	0.25031	0.10474	0.02231	0.00298	0.00016	0	0
49	0	0	0	0	0	0	0	2e-05	0.00046	0.00958	0.06973	0.21131	0.32159	0.25618	0.10466	0.02331	0.00296	0.00019	1e-05	0
49.05	0	0	0	0	0	0	0	0	0.00039	0.01019	0.06667	0.20904	0.32507	0.2568	0.10483	0.02373	0.00305	0.00023	0	0
49.1	0	0	0	0	0	0	0	1e-05	0.00041	0.00945	0.06657	0.20768	0.32286	0.25529	0.11011	0.02441	0.00297	0.00024	0	0
49.15	0	0	0	0	0	0	0	0	0.0004	0.00938	0.06563	0.20426	0.32202	0.25794	0.11244	0.02467	0.003	0.00026	0	0
49.2	0	0	0	0	0	0	0	0	0.00032	0.00868	0.06265	0.20482	0.32006	0.26303	0.11034	0.02648	0.00334	0.00028	0	0
49.25	0	0	0	0	0	0	0	0	0.00035	0.00867	0.06231	0.20432	0.32027	0.2637	0.11146	0.02576	0.00296	0.0002	0	0
49.3	0	0	0	0	0	0	0	0	0.00039	0.00806	0.062	0.19982	0.31978	0.26449	0.11492	0.02708	0.00322	0.00021	3e-05	0
49.35	0	0	0	0	0	0	0	0	0.00024	0.00748	0.06091	0.19754	0.31923	0.26493	0.11746	0.02846	0.00346	0.00027	2e-05	0
49.4	0	0	0	0	0	0	0	2e-05	0.00039	0.00795	0.05833	0.19777	0.317	0.26684	0.11801	0.02953	0.0039	0.00023	3e-05	0
49.45	0	0	0	0	0	0	0	1e-05	0.00026	0.00799	0.05896	0.19468	0.31567	0.26811	0.12002	0.03021	0.0038	0.00028	1e-05	0
49.5	0	0	0	0	0	0	0	1e-05	0.00036	0.00694	0.05695	0.19184	0.31702	0.26979	0.12273	0.02986	0.00425	0.00024	1e-05	0
49.55	0	0	0	0	0	0	0	0	0.00026	0.00678	0.05554	0.18843	0.31767	0.27249	0.12503	0.02943	0.00403	0.00031	3e-05	0
49.6	0	0	0	0	0	0	0	0	0.00023	0.00716	0.05465	0.18797	0.31554	0.27306	0.12494	0.0319	0.0042	0.00032	3e-05	0
49.65	0	0	0	0	0	0	0	1e-05	0.00024	0.00666	0.05336	0.18223	0.31296	0.2768	0.12909	0.03406	0.00424	0.00033	2e-05	0
49.7	0	0	0	0	0	0	0	0	0.00026	0.00721	0.05341	0.18164	0.31145	0.27655	0.13203	0.03281	0.00431	0.00031	2e-05	0
49.75	0	0	0	0	0	0	0	0	0.00011	0.00637	0.05166	0.18079	0.31195	0.27901	0.13104	0.0341	0.00459	0.00037	1e-05	0
49.8	0	0	0	0	0	0	0	0	0.00024	0.00604	0.05056	0.1784	0.3106	0.28057	0.13294	0.03568	0.00459	0.00038	0	0
49.85	0	0	0	0	0	0	0	0	0.00034	0.00554	0.04968	0.17499	0.30964	0.28266	0.13594	0.03529	0.00556	0.00035	1e-05	0
49.9	0	0	0	0	0	0	0	0	0.00022	0.00563	0.04871	0.17332	0.30658	0.28368	0.13891	0.03728	0.00529	0.00036	2e-05	0
49.95	0	0	0	0	0	0	0	0	0.00022	0.00569	0.04676	0.17124	0.30687	0.2861	0.14027	0.03716	0.0052	0.00044	4e-05	1e-05
50	0	0	0	0	0	0	0	0	0.00013	0.00571	0.04696	0.16701	0.3074	0.28625	0.1422	0.03813	0.00582	0.00039	0	0
