1.1	0	0	0	0	0	0	0	0	0	0	0	0	0	0	0	0	0	0	0	0
1.15	0	0	0	0	0	0	0	0	0	0	0	0	0	0	0	0	0	0	0	0
1.2	1	0	0	0	0	0	0	0	0	0	0	0	0	0	0	0	0	0	0	0
1.25	1	0	0	0	0	0	0	0	0	0	0	0	0	0	0	0	0	0	0	0
1.3	1	0	0	0	0	0	0	0	0	0	0	0	0	0	0	0	0	0	0	0
1.35	1	0	0	0	0	0	0	0	0	0	0	0	0	0	0	0	0	0	0	0
1.4	1	0	0	0	0	0	0	0	0	0	0	0	0	0	0	0	0	0	0	0
1.45	1	0	0	0	0	0	0	0	0	0	0	0	0	0	0	0	0	0	0	0
1.5	1	0	0	0	0	0	0	0	0	0	0	0	0	0	0	0	0	0	0	0
1.55	1	0	0	0	0	0	0	0	0	0	0	0	0	0	0	0	0	0	0	0
1.6	1	0	0	0	0	0	0	0	0	0	0	0	0	0	0	0	0	0	0	0
1.65	1	0	0	0	0	0	0	0	0	0	0	0	0	0	0	0	0	0	0	0
1.7	1	0	0	0	0	0	0	0	0	0	0	0	0	0	0	0	0	0	0	0
1.75	1	0	0	0	0	0	0	0	0	0	0	0	0	0	0	0	0	0	0	0
1.8	1	0	0	0	0	0	0	0	0	0	0	0	0	0	0	0	0	0	0	0
1.85	1	0	0	0	0	0	0	0	0	0	0	0	0	0	0	0	0	0	0	0
1.9	1	0	0	0	0	0	0	0	0	0	0	0	0	0	0	0	0	0	0	0
1.95	1	0	0	0	0	0	0	0	0	0	0	0	0	0	0	0	0	0	0	0
2	1	0	0	0	0	0	0	0	0	0	0	0	0	0	0	0	0	0	0	0
2.05	1	0	0	0	0	0	0	0	0	0	0	0	0	0	0	0	0	0	0	0
2.1	1	0	0	0	0	0	0	0	0	0	0	0	0	0	0	0	0	0	0	0
2.15	1	0	0	0	0	0	0	0	0	0	0	0	0	0	0	0	0	0	0	0
2.2	1	0	0	0	0	0	0	0	0	0	0	0	0	0	0	0	0	0	0	0
2.25	1	0	0	0	0	0	0	0	0	0	0	0	0	0	0	0	0	0	0	0
2.3	1	0	0	0	0	0	0	0	0	0	0	0	0	0	0	0	0	0	0	0
2.35	1	0	0	0	0	0	0	0	0	0	0	0	0	0	0	0	0	0	0	0
2.4	1	0	0	0	0	0	0	0	0	0	0	0	0	0	0	0	0	0	0	0
2.45	1	0	0	0	0	0	0	0	0	0	0	0	0	0	0	0	0	0	0	0
2.5	0.99997	3e-05	0	0	0	0	0	0	0	0	0	0	0	0	0	0	0	0	0	0
2.55	0.99996	4e-05	0	0	0	0	0	0	0	0	0	0	0	0	0	0	0	0	0	0
2.6	0.99989	0.00011	0	0	0	0	0	0	0	0	0	0	0	0	0	0	0	0	0	0
2.65	0.99978	0.00022	0	0	0	0	0	0	0	0	0	0	0	0	0	0	0	0	0	0
2.7	0.99933	0.00067	0	0	0	0	0	0	0	0	0	0	0	0	0	0	0	0	0	0
2.75	0.99884	0.00116	0	0	0	0	0	0	0	0	0	0	0	0	0	0	0	0	0	0
2.8	0.99857	0.00143	0	0	0	0	0	0	0	0	0	0	0	0	0	0	0	0	0	0
2.85	0.99775	0.00225	0	0	0	0	0	0	0	0	0	0	0	0	0	0	0	0	0	0
2.9	0.99673	0.00327	0	0	0	0	0	0	0	0	0	0	0	0	0	0	0	0	0	0
2.95	0.9952	0.0048	0	0	0	0	0	0	0	0	0	0	0	0	0	0	0	0	0	0
3	0.99406	0.00594	0	0	0	0	0	0	0	0	0	0	0	0	0	0	0	0	0	0
3.05	0.99121	0.00879	0	0	0	0	0	0	0	0	0	0	0	0	0	0	0	0	0	0
3.1	0.9885	0.0115	0	0	0	0	0	0	0	0	0	0	0	0	0	0	0	0	0	0
3.15	0.99074	0.00926	0	0	0	0	0	0	0	0	0	0	0	0	0	0	0	0	0	0
3.2	0.99202	0.00798	0	0	0	0	0	0	0	0	0	0	0	0	0	0	0	0	0	0
3.25	0.9896	0.0104	0	0	0	0	0	0	0	0	0	0	0	0	0	0	0	0	0	0
3.3	0.98506	0.01494	0	0	0	0	0	0	0	0	0	0	0	0	0	0	0	0	0	0
3.35	0.97724	0.02276	0	0	0	0	0	0	0	0	0	0	0	0	0	0	0	0	0	0
3.4	0.96545	0.03455	0	0	0	0	0	0	0	0	0	0	0	0	0	0	0	0	0	0
3.45	0.96932	0.03068	0	0	0	0	0	0	0	0	0	0	0	0	0	0	0	0	0	0
3.5	0.97662	0.02338	0	0	0	0	0	0	0	0	0	0	0	0	0	0	0	0	0	0
3.55	0.97785	0.02215	0	0	0	0	0	0	0	0	0	0	0	0	0	0	0	0	0	0
3.6	0.97254	0.02746	0	0	0	0	0	0	0	0	0	0	0	0	0	0	0	0	0	0
3.65	0.97349	0.02651	0	0	0	0	0	0	0	0	0	0	0	0	0	0	0	0	0	0
3.7	0.97775	0.02225	0	0	0	0	0	0	0	0	0	0	0	0	0	0	0	0	0	0
3.75	0.97595	0.02405	0	0	0	0	0	0	0	0	0	0	0	0	0	0	0	0	0	0
3.8	0.97662	0.02338	0	0	0	0	0	0	0	0	0	0	0	0	0	0	0	0	0	0
3.85	0.97489	0.02511	0	0	0	0	0	0	0	0	0	0	0	0	0	0	0	0	0	0
3.9	0.97088	0.02912	0	0	0	0	0	0	0	0	0	0	0	0	0	0	0	0	0	0
3.95	0.9641	0.0359	0	0	0	0	0	0	0	0	0	0	0	0	0	0	0	0	0	0
4	0.95633	0.04367	0	0	0	0	0	0	0	0	0	0	0	0	0	0	0	0	0	0
4.05	0.9506	0.0494	0	0	0	0	0	0	0	0	0	0	0	0	0	0	0	0	0	0
4.1	0.9446	0.0554	0	0	0	0	0	0	0	0	0	0	0	0	0	0	0	0	0	0
4.15	0.94024	0.05976	0	0	0	0	0	0	0	0	0	0	0	0	0	0	0	0	0	0
4.2	0.92865	0.07135	0	0	0	0	0	0	0	0	0	0	0	0	0	0	0	0	0	0
4.25	0.91287	0.08713	0	0	0	0	0	0	0	0	0	0	0	0	0	0	0	0	0	0
4.3	0.90191	0.09809	0	0	0	0	0	0	0	0	0	0	0	0	0	0	0	0	0	0
4.35	0.89273	0.10727	0	0	0	0	0	0	0	0	0	0	0	0	0	0	0	0	0	0
4.4	0.89578	0.10421	1e-05	0	0	0	0	0	0	0	0	0	0	0	0	0	0	0	0	0
4.45	0.89605	0.10394	1e-05	0	0	0	0	0	0	0	0	0	0	0	0	0	0	0	0	0
4.5	0.88939	0.11061	0	0	0	0	0	0	0	0	0	0	0	0	0	0	0	0	0	0
4.55	0.88621	0.11378	1e-05	0	0	0	0	0	0	0	0	0	0	0	0	0	0	0	0	0
4.6	0.88114	0.11885	1e-05	0	0	0	0	0	0	0	0	0	0	0	0	0	0	0	0	0
4.65	0.8754	0.1246	0	0	0	0	0	0	0	0	0	0	0	0	0	0	0	0	0	0
4.7	0.8681	0.1319	0	0	0	0	0	0	0	0	0	0	0	0	0	0	0	0	0	0
4.75	0.86553	0.13447	0	0	0	0	0	0	0	0	0	0	0	0	0	0	0	0	0	0
4.8	0.86204	0.13794	2e-05	0	0	0	0	0	0	0	0	0	0	0	0	0	0	0	0	0
4.85	0.86218	0.1378	2e-05	0	0	0	0	0	0	0	0	0	0	0	0	0	0	0	0	0
4.9	0.85659	0.14337	4e-05	0	0	0	0	0	0	0	0	0	0	0	0	0	0	0	0	0
4.95	0.84723	0.15269	8e-05	0	0	0	0	0	0	0	0	0	0	0	0	0	0	0	0	0
5	0.83703	0.16293	4e-05	0	0	0	0	0	0	0	0	0	0	0	0	0	0	0	0	0
5.05	0.83211	0.16783	6e-05	0	0	0	0	0	0	0	0	0	0	0	0	0	0	0	0	0
5.1	0.82542	0.17447	0.00011	0	0	0	0	0	0	0	0	0	0	0	0	0	0	0	0	0
5.15	0.81804	0.18189	7e-05	0	0	0	0	0	0	0	0	0	0	0	0	0	0	0	0	0
5.2	0.81232	0.18761	7e-05	0	0	0	0	0	0	0	0	0	0	0	0	0	0	0	0	0
5.25	0.80748	0.19238	0.00014	0	0	0	0	0	0	0	0	0	0	0	0	0	0	0	0	0
5.3	0.8	0.19973	0.00027	0	0	0	0	0	0	0	0	0	0	0	0	0	0	0	0	0
5.35	0.79625	0.20341	0.00034	0	0	0	0	0	0	0	0	0	0	0	0	0	0	0	0	0
5.4	0.78813	0.21155	0.00032	0	0	0	0	0	0	0	0	0	0	0	0	0	0	0	0	0
5.45	0.77817	0.22139	0.00044	0	0	0	0	0	0	0	0	0	0	0	0	0	0	0	0	0
5.5	0.77054	0.22896	0.0005	0	0	0	0	0	0	0	0	0	0	0	0	0	0	0	0	0
5.55	0.76231	0.23717	0.00052	0	0	0	0	0	0	0	0	0	0	0	0	0	0	0	0	0
5.6	0.75256	0.24668	0.00076	0	0	0	0	0	0	0	0	0	0	0	0	0	0	0	0	0
5.65	0.74438	0.25459	0.00103	0	0	0	0	0	0	0	0	0	0	0	0	0	0	0	0	0
5.7	0.73365	0.26531	0.00104	0	0	0	0	0	0	0	0	0	0	0	0	0	0	0	0	0
5.75	0.72448	0.2739	0.00162	0	0	0	0	0	0	0	0	0	0	0	0	0	0	0	0	0
5.8	0.71634	0.28213	0.00153	0	0	0	0	0	0	0	0	0	0	0	0	0	0	0	0	0
5.85	0.7081	0.28974	0.00216	0	0	0	0	0	0	0	0	0	0	0	0	0	0	0	0	0
5.9	0.69277	0.30484	0.00239	0	0	0	0	0	0	0	0	0	0	0	0	0	0	0	0	0
5.95	0.68152	0.31559	0.00289	0	0	0	0	0	0	0	0	0	0	0	0	0	0	0	0	0
6	0.66294	0.33321	0.00385	0	0	0	0	0	0	0	0	0	0	0	0	0	0	0	0	0
6.05	0.64179	0.35408	0.00413	0	0	0	0	0	0	0	0	0	0	0	0	0	0	0	0	0
6.1	0.61996	0.37536	0.00468	0	0	0	0	0	0	0	0	0	0	0	0	0	0	0	0	0
6.15	0.60544	0.38892	0.00564	0	0	0	0	0	0	0	0	0	0	0	0	0	0	0	0	0
6.2	0.5945	0.39892	0.00658	0	0	0	0	0	0	0	0	0	0	0	0	0	0	0	0	0
6.25	0.58056	0.41179	0.00765	0	0	0	0	0	0	0	0	0	0	0	0	0	0	0	0	0
6.3	0.55896	0.43242	0.00862	0	0	0	0	0	0	0	0	0	0	0	0	0	0	0	0	0
6.35	0.5408	0.44876	0.01044	0	0	0	0	0	0	0	0	0	0	0	0	0	0	0	0	0
6.4	0.52373	0.46429	0.01198	0	0	0	0	0	0	0	0	0	0	0	0	0	0	0	0	0
6.45	0.50252	0.48396	0.01352	0	0	0	0	0	0	0	0	0	0	0	0	0	0	0	0	0
6.5	0.48083	0.50419	0.01498	0	0	0	0	0	0	0	0	0	0	0	0	0	0	0	0	0
6.55	0.45746	0.52535	0.01719	0	0	0	0	0	0	0	0	0	0	0	0	0	0	0	0	0
6.6	0.44055	0.54019	0.01926	0	0	0	0	0	0	0	0	0	0	0	0	0	0	0	0	0
6.65	0.42691	0.55155	0.02154	0	0	0	0	0	0	0	0	0	0	0	0	0	0	0	0	0
6.7	0.40915	0.56569	0.02516	0	0	0	0	0	0	0	0	0	0	0	0	0	0	0	0	0
6.75	0.39431	0.57707	0.0286	2e-05	0	0	0	0	0	0	0	0	0	0	0	0	0	0	0	0
6.8	0.37607	0.59246	0.03145	2e-05	0	0	0	0	0	0	0	0	0	0	0	0	0	0	0	0
6.85	0.35822	0.60655	0.03523	0	0	0	0	0	0	0	0	0	0	0	0	0	0	0	0	0
6.9	0.34256	0.61816	0.03927	1e-05	0	0	0	0	0	0	0	0	0	0	0	0	0	0	0	0
6.95	0.34275	0.61192	0.04532	1e-05	0	0	0	0	0	0	0	0	0	0	0	0	0	0	0	0
7	0.33549	0.61228	0.05223	0	0	0	0	0	0	0	0	0	0	0	0	0	0	0	0	0
7.05	0.32787	0.61317	0.05896	0	0	0	0	0	0	0	0	0	0	0	0	0	0	0	0	0
7.1	0.32085	0.61342	0.06572	1e-05	0	0	0	0	0	0	0	0	0	0	0	0	0	0	0	0
7.15	0.31159	0.61492	0.07349	0	0	0	0	0	0	0	0	0	0	0	0	0	0	0	0	0
7.2	0.29456	0.62477	0.08065	2e-05	0	0	0	0	0	0	0	0	0	0	0	0	0	0	0	0
7.25	0.2756	0.63576	0.08858	6e-05	0	0	0	0	0	0	0	0	0	0	0	0	0	0	0	0
7.3	0.25993	0.64474	0.09533	0	0	0	0	0	0	0	0	0	0	0	0	0	0	0	0	0
7.35	0.22763	0.67333	0.09893	0.00011	0	0	0	0	0	0	0	0	0	0	0	0	0	0	0	0
7.4	0.19658	0.70478	0.09854	0.0001	0	0	0	0	0	0	0	0	0	0	0	0	0	0	0	0
7.45	0.16349	0.73761	0.0988	0.0001	0	0	0	0	0	0	0	0	0	0	0	0	0	0	0	0
7.5	0.12432	0.7744	0.10113	0.00015	0	0	0	0	0	0	0	0	0	0	0	0	0	0	0	0
7.55	0.07297	0.80745	0.1194	0.00018	0	0	0	0	0	0	0	0	0	0	0	0	0	0	0	0
7.6	0.06434	0.80188	0.13333	0.00045	0	0	0	0	0	0	0	0	0	0	0	0	0	0	0	0
7.65	0.04974	0.79827	0.15153	0.00046	0	0	0	0	0	0	0	0	0	0	0	0	0	0	0	0
7.7	0.03835	0.7807	0.18028	0.00067	0	0	0	0	0	0	0	0	0	0	0	0	0	0	0	0
7.75	0.02891	0.75647	0.21353	0.00109	0	0	0	0	0	0	0	0	0	0	0	0	0	0	0	0
7.8	0.02551	0.74612	0.22709	0.00128	0	0	0	0	0	0	0	0	0	0	0	0	0	0	0	0
7.85	0.02305	0.73534	0.2402	0.00141	0	0	0	0	0	0	0	0	0	0	0	0	0	0	0	0
7.9	0.02036	0.72643	0.25143	0.00178	0	0	0	0	0	0	0	0	0	0	0	0	0	0	0	0
7.95	0.01773	0.71731	0.26269	0.00227	0	0	0	0	0	0	0	0	0	0	0	0	0	0	0	0
8	0.01508	0.7042	0.27821	0.00251	0	0	0	0	0	0	0	0	0	0	0	0	0	0	0	0
8.05	0.01351	0.69285	0.29093	0.00271	0	0	0	0	0	0	0	0	0	0	0	0	0	0	0	0
8.1	0.01286	0.67683	0.30659	0.00372	0	0	0	0	0	0	0	0	0	0	0	0	0	0	0	0
8.15	0.01063	0.66561	0.31972	0.00404	0	0	0	0	0	0	0	0	0	0	0	0	0	0	0	0
8.2	0.0097	0.65223	0.33349	0.00457	1e-05	0	0	0	0	0	0	0	0	0	0	0	0	0	0	0
8.25	0.00776	0.64077	0.34605	0.00542	0	0	0	0	0	0	0	0	0	0	0	0	0	0	0	0
8.3	0.00663	0.62583	0.36157	0.00596	1e-05	0	0	0	0	0	0	0	0	0	0	0	0	0	0	0
8.35	0.00579	0.61591	0.37164	0.00666	0	0	0	0	0	0	0	0	0	0	0	0	0	0	0	0
8.4	0.00576	0.60162	0.38482	0.0078	0	0	0	0	0	0	0	0	0	0	0	0	0	0	0	0
8.45	0.00445	0.59339	0.39378	0.00837	1e-05	0	0	0	0	0	0	0	0	0	0	0	0	0	0	0
8.5	0.00402	0.57881	0.40792	0.00925	0	0	0	0	0	0	0	0	0	0	0	0	0	0	0	0
8.55	0.00314	0.56814	0.41859	0.01013	0	0	0	0	0	0	0	0	0	0	0	0	0	0	0	0
8.6	0.00307	0.55661	0.4292	0.01111	1e-05	0	0	0	0	0	0	0	0	0	0	0	0	0	0	0
8.65	0.00253	0.54776	0.43768	0.01202	1e-05	0	0	0	0	0	0	0	0	0	0	0	0	0	0	0
8.7	0.00213	0.53416	0.45102	0.01269	0	0	0	0	0	0	0	0	0	0	0	0	0	0	0	0
8.75	0.002	0.52251	0.46106	0.01442	1e-05	0	0	0	0	0	0	0	0	0	0	0	0	0	0	0
8.8	0.00161	0.5164	0.46606	0.01592	1e-05	0	0	0	0	0	0	0	0	0	0	0	0	0	0	0
8.85	0.00148	0.50087	0.48093	0.01672	0	0	0	0	0	0	0	0	0	0	0	0	0	0	0	0
8.9	0.00114	0.49105	0.48941	0.01836	4e-05	0	0	0	0	0	0	0	0	0	0	0	0	0	0	0
8.95	0.00108	0.47867	0.50022	0.02002	1e-05	0	0	0	0	0	0	0	0	0	0	0	0	0	0	0
9	0.00111	0.46924	0.50757	0.02208	0	0	0	0	0	0	0	0	0	0	0	0	0	0	0	0
9.05	0.0009	0.45726	0.51736	0.02446	2e-05	0	0	0	0	0	0	0	0	0	0	0	0	0	0	0
9.1	0.00077	0.45047	0.5236	0.02514	2e-05	0	0	0	0	0	0	0	0	0	0	0	0	0	0	0
9.15	0.00057	0.4382	0.53349	0.02771	3e-05	0	0	0	0	0	0	0	0	0	0	0	0	0	0	0
9.2	0.00043	0.42894	0.53999	0.03057	7e-05	0	0	0	0	0	0	0	0	0	0	0	0	0	0	0
9.25	0.00053	0.41843	0.54789	0.03312	3e-05	0	0	0	0	0	0	0	0	0	0	0	0	0	0	0
9.3	0.00035	0.40784	0.55852	0.03327	2e-05	0	0	0	0	0	0	0	0	0	0	0	0	0	0	0
9.35	0.00036	0.39787	0.5654	0.03634	3e-05	0	0	0	0	0	0	0	0	0	0	0	0	0	0	0
9.4	0.00024	0.38682	0.57409	0.03876	9e-05	0	0	0	0	0	0	0	0	0	0	0	0	0	0	0
9.45	0.00021	0.37772	0.57931	0.04271	5e-05	0	0	0	0	0	0	0	0	0	0	0	0	0	0	0
9.5	0.00016	0.3671	0.58732	0.04532	0.0001	0	0	0	0	0	0	0	0	0	0	0	0	0	0	0
9.55	8e-05	0.35823	0.59398	0.04758	0.00013	0	0	0	0	0	0	0	0	0	0	0	0	0	0	0
9.6	8e-05	0.35042	0.59772	0.05157	0.00021	0	0	0	0	0	0	0	0	0	0	0	0	0	0	0
9.65	0.0001	0.34211	0.60254	0.05513	0.00012	0	0	0	0	0	0	0	0	0	0	0	0	0	0	0
9.7	5e-05	0.32585	0.6164	0.05748	0.00022	0	0	0	0	0	0	0	0	0	0	0	0	0	0	0
9.75	6e-05	0.32131	0.61599	0.06246	0.00018	0	0	0	0	0	0	0	0	0	0	0	0	0	0	0
9.8	1e-05	0.31258	0.62082	0.0664	0.00019	0	0	0	0	0	0	0	0	0	0	0	0	0	0	0
9.85	5e-05	0.30352	0.62808	0.06799	0.00036	0	0	0	0	0	0	0	0	0	0	0	0	0	0	0
9.9	1e-05	0.29702	0.63008	0.07267	0.00022	0	0	0	0	0	0	0	0	0	0	0	0	0	0	0
9.95	1e-05	0.28639	0.6349	0.07839	0.00031	0	0	0	0	0	0	0	0	0	0	0	0	0	0	0
10	0	0.27835	0.63976	0.08144	0.00045	0	0	0	0	0	0	0	0	0	0	0	0	0	0	0
10.05	5e-05	0.26874	0.64549	0.08528	0.00044	0	0	0	0	0	0	0	0	0	0	0	0	0	0	0
10.1	0	0.25993	0.64699	0.09254	0.00054	0	0	0	0	0	0	0	0	0	0	0	0	0	0	0
10.15	0	0.25344	0.64934	0.0966	0.00062	0	0	0	0	0	0	0	0	0	0	0	0	0	0	0
10.2	1e-05	0.24456	0.65529	0.09962	0.00052	0	0	0	0	0	0	0	0	0	0	0	0	0	0	0
10.25	1e-05	0.23669	0.65775	0.10484	0.00071	0	0	0	0	0	0	0	0	0	0	0	0	0	0	0
10.3	0	0.23275	0.65656	0.10976	0.00093	0	0	0	0	0	0	0	0	0	0	0	0	0	0	0
10.35	0	0.22412	0.65923	0.11578	0.00087	0	0	0	0	0	0	0	0	0	0	0	0	0	0	0
10.4	0	0.21553	0.6637	0.11961	0.00116	0	0	0	0	0	0	0	0	0	0	0	0	0	0	0
10.45	0	0.20789	0.66373	0.12699	0.00139	0	0	0	0	0	0	0	0	0	0	0	0	0	0	0
10.5	0	0.20286	0.66387	0.13175	0.00152	0	0	0	0	0	0	0	0	0	0	0	0	0	0	0
10.55	0	0.19281	0.66795	0.13779	0.00145	0	0	0	0	0	0	0	0	0	0	0	0	0	0	0
10.6	0	0.1905	0.66482	0.14304	0.00164	0	0	0	0	0	0	0	0	0	0	0	0	0	0	0
10.65	0	0.18161	0.66585	0.15076	0.00178	0	0	0	0	0	0	0	0	0	0	0	0	0	0	0
10.7	0	0.17504	0.66754	0.15508	0.00234	0	0	0	0	0	0	0	0	0	0	0	0	0	0	0
10.75	0	0.1686	0.66868	0.16048	0.00224	0	0	0	0	0	0	0	0	0	0	0	0	0	0	0
10.8	0	0.16343	0.66339	0.17067	0.00251	0	0	0	0	0	0	0	0	0	0	0	0	0	0	0
10.85	0	0.15716	0.66501	0.17504	0.00279	0	0	0	0	0	0	0	0	0	0	0	0	0	0	0
10.9	0	0.1508	0.66289	0.18306	0.00325	0	0	0	0	0	0	0	0	0	0	0	0	0	0	0
10.95	0	0.14753	0.66023	0.18836	0.00388	0	0	0	0	0	0	0	0	0	0	0	0	0	0	0
11	0	0.13974	0.65926	0.19723	0.00376	1e-05	0	0	0	0	0	0	0	0	0	0	0	0	0	0
11.05	0	0.137	0.65639	0.20232	0.00429	0	0	0	0	0	0	0	0	0	0	0	0	0	0	0
11.1	0	0.12816	0.65808	0.20927	0.00448	1e-05	0	0	0	0	0	0	0	0	0	0	0	0	0	0
11.15	0	0.1251	0.65417	0.21549	0.00524	0	0	0	0	0	0	0	0	0	0	0	0	0	0	0
11.2	0	0.11828	0.65128	0.22525	0.00519	0	0	0	0	0	0	0	0	0	0	0	0	0	0	0
11.25	0	0.11489	0.64772	0.23159	0.0058	0	0	0	0	0	0	0	0	0	0	0	0	0	0	0
11.3	0	0.11092	0.64426	0.23882	0.006	0	0	0	0	0	0	0	0	0	0	0	0	0	0	0
11.35	0	0.10648	0.64183	0.24484	0.00681	4e-05	0	0	0	0	0	0	0	0	0	0	0	0	0	0
11.4	0	0.10283	0.63481	0.25447	0.00788	1e-05	0	0	0	0	0	0	0	0	0	0	0	0	0	0
11.45	0	0.09764	0.63384	0.26042	0.00807	3e-05	0	0	0	0	0	0	0	0	0	0	0	0	0	0
11.5	0	0.09261	0.6275	0.27097	0.00891	1e-05	0	0	0	0	0	0	0	0	0	0	0	0	0	0
11.55	0	0.08995	0.62709	0.27334	0.0096	2e-05	0	0	0	0	0	0	0	0	0	0	0	0	0	0
11.6	0	0.08785	0.6191	0.28325	0.00979	1e-05	0	0	0	0	0	0	0	0	0	0	0	0	0	0
11.65	0	0.08279	0.61457	0.29161	0.01102	1e-05	0	0	0	0	0	0	0	0	0	0	0	0	0	0
11.7	0	0.07936	0.60979	0.29902	0.01182	1e-05	0	0	0	0	0	0	0	0	0	0	0	0	0	0
11.75	0	0.07639	0.60415	0.3064	0.01304	2e-05	0	0	0	0	0	0	0	0	0	0	0	0	0	0
11.8	0	0.07189	0.59849	0.31575	0.01386	1e-05	0	0	0	0	0	0	0	0	0	0	0	0	0	0
11.85	0	0.06848	0.59334	0.32341	0.0147	7e-05	0	0	0	0	0	0	0	0	0	0	0	0	0	0
11.9	0	0.06667	0.58758	0.32995	0.01573	7e-05	0	0	0	0	0	0	0	0	0	0	0	0	0	0
11.95	0	0.06265	0.58301	0.33754	0.01674	6e-05	0	0	0	0	0	0	0	0	0	0	0	0	0	0
12	0	0.06069	0.57764	0.34321	0.0184	6e-05	0	0	0	0	0	0	0	0	0	0	0	0	0	0
12.05	0	0.05736	0.5698	0.35345	0.01931	8e-05	0	0	0	0	0	0	0	0	0	0	0	0	0	0
12.1	0	0.05468	0.56397	0.36075	0.02057	3e-05	0	0	0	0	0	0	0	0	0	0	0	0	0	0
12.15	0	0.05281	0.55683	0.36892	0.0214	4e-05	0	0	0	0	0	0	0	0	0	0	0	0	0	0
12.2	0	0.05042	0.55347	0.37243	0.02358	0.0001	0	0	0	0	0	0	0	0	0	0	0	0	0	0
12.25	0	0.04741	0.54362	0.3843	0.0246	7e-05	0	0	0	0	0	0	0	0	0	0	0	0	0	0
12.3	0	0.04484	0.53632	0.39141	0.02736	7e-05	0	0	0	0	0	0	0	0	0	0	0	0	0	0
12.35	0	0.04312	0.53034	0.39799	0.02845	0.0001	0	0	0	0	0	0	0	0	0	0	0	0	0	0
12.4	0	0.04086	0.5259	0.40324	0.02987	0.00013	0	0	0	0	0	0	0	0	0	0	0	0	0	0
12.45	0	0.0376	0.51596	0.41372	0.03263	9e-05	0	0	0	0	0	0	0	0	0	0	0	0	0	0
12.5	0	0.03656	0.51144	0.41798	0.03385	0.00017	0	0	0	0	0	0	0	0	0	0	0	0	0	0
12.55	0	0.03505	0.50427	0.42489	0.03561	0.00018	0	0	0	0	0	0	0	0	0	0	0	0	0	0
12.6	0	0.03279	0.4929	0.43609	0.03798	0.00024	0	0	0	0	0	0	0	0	0	0	0	0	0	0
12.65	0	0.03127	0.48753	0.44043	0.04056	0.00021	0	0	0	0	0	0	0	0	0	0	0	0	0	0
12.7	0	0.03013	0.48111	0.44555	0.043	0.00021	0	0	0	0	0	0	0	0	0	0	0	0	0	0
12.75	0	0.02778	0.47077	0.45612	0.04495	0.00038	0	0	0	0	0	0	0	0	0	0	0	0	0	0
12.8	0	0.02637	0.46445	0.46168	0.04712	0.00038	0	0	0	0	0	0	0	0	0	0	0	0	0	0
12.85	0	0.02511	0.45511	0.47044	0.04889	0.00045	0	0	0	0	0	0	0	0	0	0	0	0	0	0
12.9	0	0.0237	0.4511	0.47258	0.05215	0.00047	0	0	0	0	0	0	0	0	0	0	0	0	0	0
12.95	0	0.02202	0.44182	0.47965	0.05582	0.00069	0	0	0	0	0	0	0	0	0	0	0	0	0	0
13	0	0.02149	0.43534	0.48485	0.0576	0.00072	0	0	0	0	0	0	0	0	0	0	0	0	0	0
13.05	0	0.02046	0.42636	0.49185	0.06065	0.00068	0	0	0	0	0	0	0	0	0	0	0	0	0	0
13.1	0	0.01834	0.42047	0.49525	0.06511	0.00083	0	0	0	0	0	0	0	0	0	0	0	0	0	0
13.15	0	0.01785	0.40996	0.50163	0.06956	0.001	0	0	0	0	0	0	0	0	0	0	0	0	0	0
13.2	0	0.01647	0.40386	0.5088	0.06991	0.00096	0	0	0	0	0	0	0	0	0	0	0	0	0	0
13.25	0	0.0155	0.39287	0.51751	0.07315	0.00097	0	0	0	0	0	0	0	0	0	0	0	0	0	0
13.3	0	0.01448	0.38815	0.52055	0.07593	0.00089	0	0	0	0	0	0	0	0	0	0	0	0	0	0
13.35	0	0.01383	0.38114	0.525	0.07896	0.00107	0	0	0	0	0	0	0	0	0	0	0	0	0	0
13.4	0	0.01328	0.37277	0.52972	0.08293	0.00129	1e-05	0	0	0	0	0	0	0	0	0	0	0	0	0
13.45	0	0.0126	0.37024	0.53082	0.08495	0.00139	0	0	0	0	0	0	0	0	0	0	0	0	0	0
13.5	0	0.01178	0.36222	0.53573	0.08876	0.00151	0	0	0	0	0	0	0	0	0	0	0	0	0	0
13.55	0	0.01041	0.35247	0.54229	0.09316	0.00166	1e-05	0	0	0	0	0	0	0	0	0	0	0	0	0
13.6	0	0.01018	0.35054	0.54155	0.09584	0.00188	1e-05	0	0	0	0	0	0	0	0	0	0	0	0	0
13.65	0	0.0096	0.34416	0.54629	0.09809	0.00186	0	0	0	0	0	0	0	0	0	0	0	0	0	0
13.7	0	0.00945	0.33484	0.55183	0.10214	0.00174	0	0	0	0	0	0	0	0	0	0	0	0	0	0
13.75	0	0.00867	0.33021	0.55317	0.10587	0.00207	1e-05	0	0	0	0	0	0	0	0	0	0	0	0	0
13.8	0	0.00805	0.32239	0.55855	0.10874	0.00225	2e-05	0	0	0	0	0	0	0	0	0	0	0	0	0
13.85	0	0.00739	0.31483	0.56241	0.11313	0.00224	0	0	0	0	0	0	0	0	0	0	0	0	0	0
13.9	0	0.00664	0.3114	0.5622	0.11714	0.00262	0	0	0	0	0	0	0	0	0	0	0	0	0	0
13.95	0	0.00658	0.30489	0.56842	0.11763	0.00247	1e-05	0	0	0	0	0	0	0	0	0	0	0	0	0
14	0	0.00627	0.29987	0.56683	0.12395	0.00308	0	0	0	0	0	0	0	0	0	0	0	0	0	0
14.05	0	0.0054	0.2935	0.57019	0.12785	0.00306	0	0	0	0	0	0	0	0	0	0	0	0	0	0
14.1	0	0.00562	0.28729	0.57104	0.13279	0.00323	3e-05	0	0	0	0	0	0	0	0	0	0	0	0	0
14.15	0	0.00503	0.28205	0.57353	0.13623	0.00315	1e-05	0	0	0	0	0	0	0	0	0	0	0	0	0
14.2	0	0.00478	0.27632	0.57598	0.13927	0.00365	0	0	0	0	0	0	0	0	0	0	0	0	0	0
14.25	0	0.00417	0.27036	0.57688	0.14461	0.00396	2e-05	0	0	0	0	0	0	0	0	0	0	0	0	0
14.3	0	0.00427	0.26429	0.57705	0.14974	0.00463	2e-05	0	0	0	0	0	0	0	0	0	0	0	0	0
14.35	0	0.00368	0.25841	0.58	0.15315	0.00475	1e-05	0	0	0	0	0	0	0	0	0	0	0	0	0
14.4	0	0.00333	0.25357	0.58109	0.15671	0.00528	2e-05	0	0	0	0	0	0	0	0	0	0	0	0	0
14.45	0	0.00312	0.24683	0.58233	0.16232	0.00537	3e-05	0	0	0	0	0	0	0	0	0	0	0	0	0
14.5	0	0.00286	0.24207	0.58301	0.16658	0.00548	0	0	0	0	0	0	0	0	0	0	0	0	0	0
14.55	0	0.00292	0.23934	0.58396	0.16796	0.00581	1e-05	0	0	0	0	0	0	0	0	0	0	0	0	0
14.6	0	0.00249	0.23082	0.58773	0.17241	0.0065	5e-05	0	0	0	0	0	0	0	0	0	0	0	0	0
14.65	0	0.00239	0.22857	0.58391	0.17788	0.00722	3e-05	0	0	0	0	0	0	0	0	0	0	0	0	0
14.7	0	0.00226	0.22331	0.58491	0.18203	0.00747	2e-05	0	0	0	0	0	0	0	0	0	0	0	0	0
14.75	0	0.00223	0.21812	0.58534	0.18638	0.00791	2e-05	0	0	0	0	0	0	0	0	0	0	0	0	0
14.8	0	0.00189	0.21322	0.58287	0.19368	0.00833	1e-05	0	0	0	0	0	0	0	0	0	0	0	0	0
14.85	0	0.00184	0.20964	0.5826	0.197	0.00884	8e-05	0	0	0	0	0	0	0	0	0	0	0	0	0
14.9	0	0.00154	0.2052	0.58019	0.20368	0.00933	6e-05	0	0	0	0	0	0	0	0	0	0	0	0	0
14.95	0	0.00155	0.20221	0.58231	0.20377	0.01014	2e-05	0	0	0	0	0	0	0	0	0	0	0	0	0
15	0	0.00144	0.19724	0.57931	0.21111	0.01083	7e-05	0	0	0	0	0	0	0	0	0	0	0	0	0
15.05	0	0.00133	0.19168	0.58111	0.21486	0.01093	9e-05	0	0	0	0	0	0	0	0	0	0	0	0	0
15.1	0	0.00112	0.18664	0.57816	0.22109	0.01289	0.0001	0	0	0	0	0	0	0	0	0	0	0	0	0
15.15	0	0.0011	0.18327	0.57671	0.22538	0.01345	9e-05	0	0	0	0	0	0	0	0	0	0	0	0	0
15.2	0	0.00097	0.17992	0.57488	0.2297	0.01441	0.00012	0	0	0	0	0	0	0	0	0	0	0	0	0
15.25	0	0.0009	0.17659	0.5714	0.23616	0.0148	0.00015	0	0	0	0	0	0	0	0	0	0	0	0	0
15.3	0	0.00085	0.17121	0.57121	0.23995	0.01661	0.00017	0	0	0	0	0	0	0	0	0	0	0	0	0
15.35	0	0.00084	0.16793	0.5669	0.24714	0.01697	0.00022	0	0	0	0	0	0	0	0	0	0	0	0	0
15.4	0	0.00093	0.16474	0.5626	0.25378	0.0176	0.00035	0	0	0	0	0	0	0	0	0	0	0	0	0
15.45	0	0.00065	0.15967	0.5615	0.25939	0.01859	0.0002	0	0	0	0	0	0	0	0	0	0	0	0	0
15.5	0	0.00074	0.1545	0.55828	0.26544	0.02086	0.00018	0	0	0	0	0	0	0	0	0	0	0	0	0
15.55	0	0.00059	0.15192	0.55161	0.2728	0.02279	0.00029	0	0	0	0	0	0	0	0	0	0	0	0	0
15.6	0	0.00068	0.14908	0.54885	0.27784	0.02332	0.00023	0	0	0	0	0	0	0	0	0	0	0	0	0
15.65	0	0.0006	0.14345	0.54465	0.28482	0.02611	0.00037	0	0	0	0	0	0	0	0	0	0	0	0	0
15.7	0	0.00048	0.13958	0.54308	0.28973	0.02688	0.00025	0	0	0	0	0	0	0	0	0	0	0	0	0
15.75	0	0.00048	0.13558	0.53791	0.29692	0.02878	0.00033	0	0	0	0	0	0	0	0	0	0	0	0	0
15.8	0	0.00048	0.13161	0.53319	0.30413	0.03016	0.00043	0	0	0	0	0	0	0	0	0	0	0	0	0
15.85	0	0.00044	0.12847	0.52725	0.31076	0.03258	0.0005	0	0	0	0	0	0	0	0	0	0	0	0	0
15.9	0	0.00032	0.12357	0.52275	0.31799	0.03473	0.00064	0	0	0	0	0	0	0	0	0	0	0	0	0
15.95	0	0.00048	0.12187	0.51548	0.325	0.03653	0.00064	0	0	0	0	0	0	0	0	0	0	0	0	0
16	0	0.00037	0.11707	0.50871	0.33386	0.0394	0.00059	0	0	0	0	0	0	0	0	0	0	0	0	0
16.05	0	0.00037	0.11227	0.50442	0.34076	0.04157	0.00061	0	0	0	0	0	0	0	0	0	0	0	0	0
16.1	0	0.00036	0.10877	0.49767	0.34787	0.04453	0.0008	0	0	0	0	0	0	0	0	0	0	0	0	0
16.15	0	0.0002	0.10295	0.48968	0.35927	0.04692	0.00098	0	0	0	0	0	0	0	0	0	0	0	0	0
16.2	0	0.00028	0.09779	0.48676	0.3644	0.04989	0.00088	0	0	0	0	0	0	0	0	0	0	0	0	0
16.25	0	0.00024	0.09537	0.47624	0.37471	0.05239	0.00104	1e-05	0	0	0	0	0	0	0	0	0	0	0	0
16.3	0	0.0002	0.08933	0.4724	0.38063	0.05615	0.00129	0	0	0	0	0	0	0	0	0	0	0	0	0
16.35	0	0.00019	0.08667	0.46449	0.38934	0.05806	0.00125	0	0	0	0	0	0	0	0	0	0	0	0	0
16.4	0	0.00013	0.08306	0.45576	0.39809	0.06167	0.00128	1e-05	0	0	0	0	0	0	0	0	0	0	0	0
16.45	0	0.00014	0.07816	0.4484	0.40938	0.06254	0.00138	0	0	0	0	0	0	0	0	0	0	0	0	0
16.5	0	0.00011	0.07412	0.43945	0.41787	0.06707	0.00138	0	0	0	0	0	0	0	0	0	0	0	0	0
16.55	0	0.00014	0.06932	0.43224	0.42596	0.07061	0.00171	2e-05	0	0	0	0	0	0	0	0	0	0	0	0
16.6	0	0.00011	0.06561	0.42546	0.43309	0.07394	0.00179	0	0	0	0	0	0	0	0	0	0	0	0	0
16.65	0	0.00015	0.06263	0.41629	0.44192	0.07707	0.00193	1e-05	0	0	0	0	0	0	0	0	0	0	0	0
16.7	0	0.0001	0.05829	0.41	0.44843	0.08106	0.00212	0	0	0	0	0	0	0	0	0	0	0	0	0
16.75	0	3e-05	0.05285	0.4029	0.45839	0.08391	0.00191	1e-05	0	0	0	0	0	0	0	0	0	0	0	0
16.8	0	0.0001	0.05159	0.39439	0.46343	0.08824	0.00224	1e-05	0	0	0	0	0	0	0	0	0	0	0	0
16.85	0	0.0001	0.04804	0.38805	0.47159	0.08986	0.00235	1e-05	0	0	0	0	0	0	0	0	0	0	0	0
16.9	0	8e-05	0.04477	0.37965	0.47927	0.0937	0.00253	0	0	0	0	0	0	0	0	0	0	0	0	0
16.95	0	7e-05	0.0407	0.37429	0.48614	0.09587	0.00291	2e-05	0	0	0	0	0	0	0	0	0	0	0	0
17	0	5e-05	0.03884	0.37141	0.48643	0.1006	0.00267	0	0	0	0	0	0	0	0	0	0	0	0	0
17.05	0	8e-05	0.03423	0.36287	0.49573	0.10413	0.00295	1e-05	0	0	0	0	0	0	0	0	0	0	0	0
17.1	0	3e-05	0.03319	0.35578	0.50143	0.10621	0.00334	2e-05	0	0	0	0	0	0	0	0	0	0	0	0
17.15	0	2e-05	0.03021	0.34821	0.5077	0.11034	0.0035	2e-05	0	0	0	0	0	0	0	0	0	0	0	0
17.2	0	3e-05	0.02798	0.34451	0.5106	0.11341	0.00346	1e-05	0	0	0	0	0	0	0	0	0	0	0	0
17.25	0	2e-05	0.02776	0.33776	0.51357	0.11645	0.00444	0	0	0	0	0	0	0	0	0	0	0	0	0
17.3	0	5e-05	0.02508	0.33015	0.52031	0.12018	0.00421	2e-05	0	0	0	0	0	0	0	0	0	0	0	0
17.35	0	1e-05	0.02329	0.32309	0.52485	0.12413	0.00458	5e-05	0	0	0	0	0	0	0	0	0	0	0	0
17.4	0	5e-05	0.02232	0.32197	0.5268	0.12395	0.00485	6e-05	0	0	0	0	0	0	0	0	0	0	0	0
17.45	0	3e-05	0.0205	0.3154	0.52828	0.13039	0.00539	1e-05	0	0	0	0	0	0	0	0	0	0	0	0
17.5	0	0	0.01827	0.31155	0.53208	0.13255	0.00549	6e-05	0	0	0	0	0	0	0	0	0	0	0	0
17.55	0	0	0.01828	0.30651	0.53565	0.13383	0.00563	0.0001	0	0	0	0	0	0	0	0	0	0	0	0
17.6	0	0	0.01644	0.303	0.5352	0.13876	0.00658	2e-05	0	0	0	0	0	0	0	0	0	0	0	0
17.65	0	1e-05	0.01596	0.29725	0.536	0.14394	0.00678	6e-05	0	0	0	0	0	0	0	0	0	0	0	0
17.7	0	0	0.01478	0.29221	0.53982	0.14612	0.00705	2e-05	0	0	0	0	0	0	0	0	0	0	0	0
17.75	0	1e-05	0.01442	0.28896	0.54031	0.14877	0.00747	6e-05	0	0	0	0	0	0	0	0	0	0	0	0
17.8	0	0	0.01277	0.28523	0.54219	0.15209	0.00766	6e-05	0	0	0	0	0	0	0	0	0	0	0	0
17.85	0	0	0.01216	0.28033	0.54162	0.15715	0.00865	9e-05	0	0	0	0	0	0	0	0	0	0	0	0
17.9	0	0	0.01227	0.27682	0.54115	0.16037	0.00931	8e-05	0	0	0	0	0	0	0	0	0	0	0	0
17.95	0	0	0.01143	0.27255	0.54263	0.1633	0.00991	0.00018	0	0	0	0	0	0	0	0	0	0	0	0
18	0	0	0.01092	0.26712	0.54357	0.16768	0.0106	0.00011	0	0	0	0	0	0	0	0	0	0	0	0
18.05	0	0	0.0103	0.26286	0.54338	0.17186	0.01151	9e-05	0	0	0	0	0	0	0	0	0	0	0	0
18.1	0	0	0.00995	0.25934	0.54256	0.17661	0.01136	0.00018	0	0	0	0	0	0	0	0	0	0	0	0
18.15	0	0	0.00855	0.25504	0.54145	0.18159	0.01327	0.0001	0	0	0	0	0	0	0	0	0	0	0	0
18.2	0	0	0.00843	0.24708	0.54674	0.1837	0.0139	0.00015	0	0	0	0	0	0	0	0	0	0	0	0
18.25	0	0	0.00788	0.24875	0.5406	0.18826	0.01435	0.00016	0	0	0	0	0	0	0	0	0	0	0	0
18.3	0	0	0.0082	0.24207	0.54132	0.19322	0.01497	0.00022	0	0	0	0	0	0	0	0	0	0	0	0
18.35	0	0	0.00774	0.23844	0.54061	0.19706	0.01586	0.00029	0	0	0	0	0	0	0	0	0	0	0	0
18.4	0	0	0.00765	0.23153	0.53779	0.2056	0.01723	0.0002	0	0	0	0	0	0	0	0	0	0	0	0
18.45	0	0	0.0074	0.2296	0.53899	0.20545	0.01835	0.00021	0	0	0	0	0	0	0	0	0	0	0	0
18.5	0	0	0.00639	0.22586	0.53821	0.21049	0.01878	0.00027	0	0	0	0	0	0	0	0	0	0	0	0
18.55	0	0	0.00639	0.22165	0.53648	0.21531	0.01984	0.00033	0	0	0	0	0	0	0	0	0	0	0	0
18.6	0	0	0.0058	0.21814	0.53405	0.2207	0.02091	0.0004	0	0	0	0	0	0	0	0	0	0	0	0
18.65	0	0	0.00508	0.21365	0.53237	0.22649	0.02201	0.0004	0	0	0	0	0	0	0	0	0	0	0	0
18.7	0	0	0.00502	0.20963	0.53224	0.22981	0.02294	0.00036	0	0	0	0	0	0	0	0	0	0	0	0
18.75	0	0	0.00498	0.2051	0.52861	0.23684	0.02398	0.00049	0	0	0	0	0	0	0	0	0	0	0	0
18.8	0	0	0.00512	0.2016	0.52523	0.24111	0.02648	0.00046	0	0	0	0	0	0	0	0	0	0	0	0
18.85	0	0	0.0046	0.19516	0.52506	0.24832	0.02635	0.00051	0	0	0	0	0	0	0	0	0	0	0	0
18.9	0	0	0.00459	0.19253	0.52293	0.25094	0.0284	0.0006	1e-05	0	0	0	0	0	0	0	0	0	0	0
18.95	0	0	0.00412	0.19061	0.51974	0.25527	0.02959	0.00067	0	0	0	0	0	0	0	0	0	0	0	0
19	0	0	0.00382	0.18758	0.51601	0.26062	0.0312	0.00076	1e-05	0	0	0	0	0	0	0	0	0	0	0
19.05	0	0	0.00351	0.18257	0.51504	0.26586	0.03233	0.00069	0	0	0	0	0	0	0	0	0	0	0	0
19.1	0	0	0.0038	0.17854	0.51106	0.27143	0.03447	0.0007	0	0	0	0	0	0	0	0	0	0	0	0
19.15	0	0	0.00345	0.17354	0.51041	0.27498	0.0365	0.00112	0	0	0	0	0	0	0	0	0	0	0	0
19.2	0	0	0.0033	0.17145	0.5032	0.28391	0.03739	0.00073	2e-05	0	0	0	0	0	0	0	0	0	0	0
19.25	0	0	0.00314	0.16709	0.50145	0.28791	0.03954	0.00087	0	0	0	0	0	0	0	0	0	0	0	0
19.3	0	0	0.0027	0.16231	0.50146	0.29197	0.04051	0.00105	0	0	0	0	0	0	0	0	0	0	0	0
19.35	0	0	0.00273	0.16069	0.49283	0.29952	0.04321	0.00102	0	0	0	0	0	0	0	0	0	0	0	0
19.4	0	0	0.003	0.1569	0.49134	0.3026	0.04485	0.00129	2e-05	0	0	0	0	0	0	0	0	0	0	0
19.45	0	0	0.00219	0.15234	0.4871	0.31065	0.04646	0.00124	2e-05	0	0	0	0	0	0	0	0	0	0	0
19.5	0	0	0.0022	0.14805	0.48757	0.31224	0.04855	0.00138	1e-05	0	0	0	0	0	0	0	0	0	0	0
19.55	0	0	0.00207	0.14446	0.4822	0.31935	0.05051	0.00141	0	0	0	0	0	0	0	0	0	0	0	0
19.6	0	0	0.00225	0.14199	0.47952	0.32354	0.05131	0.00139	0	0	0	0	0	0	0	0	0	0	0	0
19.65	0	0	0.00168	0.13895	0.47224	0.33034	0.05512	0.00165	2e-05	0	0	0	0	0	0	0	0	0	0	0
19.7	0	0	0.00195	0.13408	0.47295	0.33285	0.05649	0.00167	1e-05	0	0	0	0	0	0	0	0	0	0	0
19.75	0	0	0.00162	0.1308	0.46421	0.34312	0.05858	0.00166	1e-05	0	0	0	0	0	0	0	0	0	0	0
19.8	0	0	0.00147	0.12923	0.4605	0.34696	0.05971	0.0021	3e-05	0	0	0	0	0	0	0	0	0	0	0
19.85	0	0	0.00169	0.12562	0.45767	0.3505	0.06239	0.00212	1e-05	0	0	0	0	0	0	0	0	0	0	0
19.9	0	0	0.00137	0.12227	0.45363	0.35438	0.06589	0.00245	1e-05	0	0	0	0	0	0	0	0	0	0	0
19.95	0	0	0.00133	0.117	0.4514	0.36155	0.0661	0.00259	3e-05	0	0	0	0	0	0	0	0	0	0	0
20	0	0	0.00134	0.11508	0.44609	0.36472	0.06999	0.00276	2e-05	0	0	0	0	0	0	0	0	0	0	0
20.05	0	0	0.00116	0.11375	0.44008	0.37184	0.07034	0.0028	3e-05	0	0	0	0	0	0	0	0	0	0	0
20.1	0	0	0.00132	0.10902	0.43808	0.37443	0.07413	0.00299	3e-05	0	0	0	0	0	0	0	0	0	0	0
20.15	0	0	0.00111	0.10467	0.43524	0.38023	0.0755	0.0032	5e-05	0	0	0	0	0	0	0	0	0	0	0
20.2	0	0	0.00085	0.10247	0.42754	0.38676	0.07908	0.00328	2e-05	0	0	0	0	0	0	0	0	0	0	0
20.25	0	0	0.00099	0.10196	0.42248	0.39087	0.08012	0.00354	4e-05	0	0	0	0	0	0	0	0	0	0	0
20.3	0	0	0.00078	0.09976	0.41983	0.39126	0.08475	0.00357	5e-05	0	0	0	0	0	0	0	0	0	0	0
20.35	0	0	0.00064	0.09361	0.41417	0.40081	0.08659	0.00413	5e-05	0	0	0	0	0	0	0	0	0	0	0
20.4	0	0	0.00077	0.09392	0.40867	0.40257	0.08961	0.00439	7e-05	0	0	0	0	0	0	0	0	0	0	0
20.45	0	0	0.00065	0.08896	0.40165	0.41267	0.09156	0.00443	8e-05	0	0	0	0	0	0	0	0	0	0	0
20.5	0	0	0.00074	0.08622	0.40072	0.4127	0.09475	0.00484	3e-05	0	0	0	0	0	0	0	0	0	0	0
20.55	0	0	0.00071	0.0838	0.39866	0.41493	0.09677	0.00508	5e-05	0	0	0	0	0	0	0	0	0	0	0
20.6	0	0	0.00054	0.08054	0.38863	0.42335	0.10105	0.00584	5e-05	0	0	0	0	0	0	0	0	0	0	0
20.65	0	0	0.00058	0.07738	0.38871	0.42453	0.10296	0.00575	9e-05	0	0	0	0	0	0	0	0	0	0	0
20.7	0	0	0.00055	0.07567	0.38028	0.43093	0.10647	0.00601	9e-05	0	0	0	0	0	0	0	0	0	0	0
20.75	0	0	0.00047	0.07383	0.37701	0.43141	0.11053	0.00668	7e-05	0	0	0	0	0	0	0	0	0	0	0
20.8	0	0	0.0005	0.07014	0.37223	0.43683	0.11351	0.00666	0.00013	0	0	0	0	0	0	0	0	0	0	0
20.85	0	0	0.00043	0.06911	0.36617	0.4401	0.11652	0.00753	0.00014	0	0	0	0	0	0	0	0	0	0	0
20.9	0	0	0.00042	0.06556	0.36221	0.44403	0.11929	0.00841	8e-05	0	0	0	0	0	0	0	0	0	0	0
20.95	0	0	0.00054	0.06345	0.35922	0.44661	0.12167	0.00835	0.00016	0	0	0	0	0	0	0	0	0	0	0
21	0	0	0.00047	0.06247	0.35426	0.44844	0.12537	0.0088	0.00019	0	0	0	0	0	0	0	0	0	0	0
21.05	0	0	0.00032	0.05861	0.35087	0.45374	0.12701	0.0093	0.00014	1e-05	0	0	0	0	0	0	0	0	0	0
21.1	0	0	0.00032	0.05722	0.34363	0.457	0.1317	0.01003	0.0001	0	0	0	0	0	0	0	0	0	0	0
21.15	0	0	0.00026	0.05497	0.33839	0.46072	0.13523	0.01028	0.00015	0	0	0	0	0	0	0	0	0	0	0
21.2	0	0	0.00031	0.05246	0.33428	0.46403	0.1372	0.0115	0.00022	0	0	0	0	0	0	0	0	0	0	0
21.25	0	0	0.00026	0.05154	0.32919	0.46479	0.14239	0.01163	0.0002	0	0	0	0	0	0	0	0	0	0	0
21.3	0	0	0.00023	0.05057	0.32377	0.466	0.147	0.01226	0.00017	0	0	0	0	0	0	0	0	0	0	0
21.35	0	0	0.00022	0.04678	0.32114	0.46638	0.15165	0.01351	0.00032	0	0	0	0	0	0	0	0	0	0	0
21.4	0	0	0.00026	0.04722	0.3157	0.46888	0.15442	0.01313	0.00039	0	0	0	0	0	0	0	0	0	0	0
21.45	0	0	0.00022	0.04312	0.30765	0.47489	0.15963	0.01426	0.00023	0	0	0	0	0	0	0	0	0	0	0
21.5	0	0	0.00019	0.04363	0.30348	0.47449	0.16234	0.01568	0.00019	0	0	0	0	0	0	0	0	0	0	0
21.55	0	0	0.00032	0.03997	0.30092	0.47697	0.16592	0.01554	0.00035	1e-05	0	0	0	0	0	0	0	0	0	0
21.6	0	0	0.00016	0.04007	0.294	0.4778	0.1706	0.017	0.00036	1e-05	0	0	0	0	0	0	0	0	0	0
21.65	0	0	0.00016	0.03851	0.29071	0.47991	0.17264	0.01767	0.0004	0	0	0	0	0	0	0	0	0	0	0
21.7	0	0	0.00021	0.03564	0.28526	0.48295	0.1771	0.01843	0.00041	0	0	0	0	0	0	0	0	0	0	0
21.75	0	0	0.00017	0.03461	0.28136	0.48288	0.18166	0.01889	0.00043	0	0	0	0	0	0	0	0	0	0	0
21.8	0	0	0.00017	0.03322	0.27657	0.48302	0.18676	0.01983	0.00043	0	0	0	0	0	0	0	0	0	0	0
21.85	0	0	0.0001	0.03205	0.27284	0.48218	0.19178	0.02057	0.00048	0	0	0	0	0	0	0	0	0	0	0
21.9	0	0	8e-05	0.03119	0.26606	0.48579	0.1934	0.02293	0.00055	0	0	0	0	0	0	0	0	0	0	0
21.95	0	0	0.00015	0.02862	0.26391	0.48408	0.19903	0.0235	0.00071	0	0	0	0	0	0	0	0	0	0	0
22	0	0	0.0001	0.0277	0.25702	0.48863	0.2016	0.02442	0.00053	0	0	0	0	0	0	0	0	0	0	0
22.05	0	0	7e-05	0.02803	0.25344	0.48483	0.20703	0.02572	0.00087	1e-05	0	0	0	0	0	0	0	0	0	0
22.1	0	0	0.0001	0.02597	0.25093	0.48189	0.21341	0.027	0.0007	0	0	0	0	0	0	0	0	0	0	0
22.15	0	0	7e-05	0.02475	0.24604	0.48509	0.21512	0.0282	0.00072	1e-05	0	0	0	0	0	0	0	0	0	0
22.2	0	0	6e-05	0.02439	0.24055	0.48444	0.22043	0.02936	0.00077	0	0	0	0	0	0	0	0	0	0	0
22.25	0	0	6e-05	0.02199	0.23602	0.48434	0.2272	0.02963	0.00076	0	0	0	0	0	0	0	0	0	0	0
22.3	0	0	4e-05	0.02121	0.2338	0.48148	0.23083	0.03175	0.00089	0	0	0	0	0	0	0	0	0	0	0
22.35	0	0	7e-05	0.02068	0.22923	0.48148	0.23527	0.03224	0.00101	2e-05	0	0	0	0	0	0	0	0	0	0
22.4	0	0	9e-05	0.01856	0.22419	0.48355	0.23871	0.03373	0.00116	1e-05	0	0	0	0	0	0	0	0	0	0
22.45	0	0	9e-05	0.01816	0.22096	0.48209	0.24252	0.03517	0.001	1e-05	0	0	0	0	0	0	0	0	0	0
22.5	0	0	5e-05	0.01745	0.21756	0.47977	0.24721	0.03658	0.00138	0	0	0	0	0	0	0	0	0	0	0
22.55	0	0	6e-05	0.01767	0.21021	0.47957	0.25259	0.03831	0.00158	1e-05	0	0	0	0	0	0	0	0	0	0
22.6	0	0	3e-05	0.01594	0.20886	0.4793	0.256	0.03852	0.00134	1e-05	0	0	0	0	0	0	0	0	0	0
22.65	0	0	2e-05	0.01462	0.20516	0.47716	0.26066	0.04083	0.00154	1e-05	0	0	0	0	0	0	0	0	0	0
22.7	0	0	3e-05	0.01398	0.19923	0.47586	0.26652	0.04252	0.00185	1e-05	0	0	0	0	0	0	0	0	0	0
22.75	0	0	6e-05	0.01385	0.19505	0.47264	0.27305	0.04353	0.0018	2e-05	0	0	0	0	0	0	0	0	0	0
22.8	0	0	4e-05	0.01289	0.19211	0.47264	0.27543	0.04519	0.00167	3e-05	0	0	0	0	0	0	0	0	0	0
22.85	0	0	3e-05	0.0129	0.1887	0.46981	0.27947	0.04727	0.00181	1e-05	0	0	0	0	0	0	0	0	0	0
22.9	0	0	3e-05	0.01168	0.18709	0.46733	0.2819	0.04973	0.00222	2e-05	0	0	0	0	0	0	0	0	0	0
22.95	0	0	2e-05	0.01111	0.18298	0.46499	0.28788	0.05077	0.00219	6e-05	0	0	0	0	0	0	0	0	0	0
23	0	0	2e-05	0.01024	0.17784	0.46269	0.29382	0.05289	0.00245	5e-05	0	0	0	0	0	0	0	0	0	0
23.05	0	0	2e-05	0.00954	0.1716	0.46203	0.29887	0.05535	0.00255	4e-05	0	0	0	0	0	0	0	0	0	0
23.1	0	0	3e-05	0.00944	0.17041	0.45702	0.30369	0.05676	0.00263	2e-05	0	0	0	0	0	0	0	0	0	0
23.15	0	0	5e-05	0.00886	0.16567	0.45603	0.30833	0.05803	0.00301	2e-05	0	0	0	0	0	0	0	0	0	0
23.2	0	0	4e-05	0.00828	0.16209	0.45316	0.31332	0.05993	0.00314	4e-05	0	0	0	0	0	0	0	0	0	0
23.25	0	0	0	0.00767	0.15869	0.45169	0.31584	0.0629	0.00311	0.0001	0	0	0	0	0	0	0	0	0	0
23.3	0	0	4e-05	0.00756	0.15466	0.44803	0.3221	0.06394	0.00363	4e-05	0	0	0	0	0	0	0	0	0	0
23.35	0	0	2e-05	0.00684	0.15356	0.44588	0.32498	0.06538	0.00329	5e-05	0	0	0	0	0	0	0	0	0	0
23.4	0	0	1e-05	0.00683	0.14804	0.44265	0.33044	0.06816	0.0038	7e-05	0	0	0	0	0	0	0	0	0	0
23.45	0	0	2e-05	0.00595	0.14344	0.44096	0.33517	0.07045	0.00395	6e-05	0	0	0	0	0	0	0	0	0	0
23.5	0	0	0	0.00581	0.14254	0.43591	0.3372	0.074	0.00445	9e-05	0	0	0	0	0	0	0	0	0	0
23.55	0	0	2e-05	0.0056	0.13886	0.43431	0.34151	0.07513	0.00452	5e-05	0	0	0	0	0	0	0	0	0	0
23.6	0	0	1e-05	0.00542	0.13698	0.42836	0.34612	0.07802	0.00506	3e-05	0	0	0	0	0	0	0	0	0	0
23.65	0	0	1e-05	0.00517	0.13247	0.42736	0.35043	0.07936	0.00511	9e-05	0	0	0	0	0	0	0	0	0	0
23.7	0	0	0	0.0045	0.12828	0.42074	0.35862	0.08237	0.00542	7e-05	0	0	0	0	0	0	0	0	0	0
23.75	0	0	2e-05	0.00465	0.12717	0.41969	0.35778	0.08498	0.00563	8e-05	0	0	0	0	0	0	0	0	0	0
23.8	0	0	1e-05	0.00429	0.12343	0.41312	0.36586	0.08709	0.00617	3e-05	0	0	0	0	0	0	0	0	0	0
23.85	0	0	2e-05	0.00389	0.1211	0.41459	0.36557	0.0885	0.00622	0.00011	0	0	0	0	0	0	0	0	0	0
23.9	0	0	0	0.00375	0.11719	0.4072	0.37119	0.09402	0.00657	8e-05	0	0	0	0	0	0	0	0	0	0
23.95	0	0	0	0.00336	0.1142	0.40381	0.37644	0.09508	0.00696	0.00015	0	0	0	0	0	0	0	0	0	0
24	0	0	0	0.00334	0.11303	0.40055	0.37936	0.09656	0.00705	0.00011	0	0	0	0	0	0	0	0	0	0
24.05	0	0	0	0.00283	0.10826	0.39958	0.38066	0.10091	0.00756	0.0002	0	0	0	0	0	0	0	0	0	0
24.1	0	0	0	0.00275	0.10758	0.39283	0.38458	0.10362	0.00846	0.00018	0	0	0	0	0	0	0	0	0	0
24.15	0	0	0	0.00282	0.10222	0.38744	0.39167	0.10677	0.00892	0.00016	0	0	0	0	0	0	0	0	0	0
24.2	0	0	0	0.00248	0.10144	0.38329	0.39519	0.10761	0.00985	0.00014	0	0	0	0	0	0	0	0	0	0
24.25	0	0	1e-05	0.00237	0.09705	0.38264	0.39547	0.11304	0.00924	0.00018	0	0	0	0	0	0	0	0	0	0
24.3	0	0	0	0.00214	0.09458	0.37727	0.40008	0.11505	0.01065	0.00023	0	0	0	0	0	0	0	0	0	0
24.35	0	0	1e-05	0.00179	0.09376	0.37651	0.40021	0.11717	0.01039	0.00016	0	0	0	0	0	0	0	0	0	0
24.4	0	0	0	0.00204	0.08877	0.37075	0.40871	0.11874	0.01077	0.00022	0	0	0	0	0	0	0	0	0	0
24.45	0	0	2e-05	0.00168	0.08826	0.36898	0.40676	0.1232	0.01093	0.00016	1e-05	0	0	0	0	0	0	0	0	0
24.5	0	0	0	0.00184	0.08544	0.3637	0.4093	0.12696	0.01242	0.00034	0	0	0	0	0	0	0	0	0	0
24.55	0	0	0	0.00157	0.0831	0.35888	0.41348	0.12975	0.01286	0.00035	1e-05	0	0	0	0	0	0	0	0	0
24.6	0	0	0	0.00149	0.08158	0.35216	0.41788	0.13364	0.01296	0.00027	2e-05	0	0	0	0	0	0	0	0	0
24.65	0	0	0	0.0016	0.08008	0.3509	0.41901	0.13511	0.01293	0.00036	1e-05	0	0	0	0	0	0	0	0	0
24.7	0	0	0	0.00141	0.07681	0.34345	0.42198	0.1413	0.01458	0.00047	0	0	0	0	0	0	0	0	0	0
24.75	0	0	0	0.00138	0.07323	0.34188	0.42272	0.1445	0.01592	0.00036	1e-05	0	0	0	0	0	0	0	0	0
24.8	0	0	0	0.00119	0.07273	0.33834	0.42434	0.14728	0.01565	0.00047	0	0	0	0	0	0	0	0	0	0
24.85	0	0	0	0.00117	0.07032	0.33369	0.42711	0.1508	0.01644	0.00047	0	0	0	0	0	0	0	0	0	0
24.9	0	0	0	0.00097	0.0677	0.32979	0.43168	0.15218	0.01715	0.00053	0	0	0	0	0	0	0	0	0	0
24.95	0	0	0	0.00099	0.06782	0.32532	0.42895	0.15795	0.01829	0.00068	0	0	0	0	0	0	0	0	0	0
25	0	0	0	0.00091	0.06444	0.32294	0.43329	0.15845	0.01936	0.0006	1e-05	0	0	0	0	0	0	0	0	0
25.05	0	0	0	0.001	0.06238	0.31388	0.4371	0.1643	0.02071	0.00062	1e-05	0	0	0	0	0	0	0	0	0
25.1	0	0	0	0.00087	0.06117	0.31541	0.43517	0.16589	0.02085	0.00063	1e-05	0	0	0	0	0	0	0	0	0
25.15	0	0	1e-05	0.00077	0.05765	0.30803	0.43888	0.17247	0.02142	0.00076	1e-05	0	0	0	0	0	0	0	0	0
25.2	0	0	0	0.00074	0.05782	0.30645	0.43702	0.17385	0.0233	0.00082	0	0	0	0	0	0	0	0	0	0
25.25	0	0	0	0.0006	0.05571	0.29927	0.44245	0.17739	0.02378	0.00079	1e-05	0	0	0	0	0	0	0	0	0
25.3	0	0	0	0.00075	0.05558	0.29488	0.44259	0.18053	0.02471	0.00096	0	0	0	0	0	0	0	0	0	0
25.35	0	0	0	0.00061	0.05154	0.29211	0.44349	0.18597	0.02544	0.00084	0	0	0	0	0	0	0	0	0	0
25.4	0	0	0	0.00065	0.04953	0.28959	0.44286	0.18985	0.02653	0.00095	4e-05	0	0	0	0	0	0	0	0	0
25.45	0	0	0	0.00048	0.04926	0.28406	0.44515	0.19405	0.02585	0.00113	2e-05	0	0	0	0	0	0	0	0	0
25.5	0	0	0	0.00059	0.04779	0.2776	0.44726	0.19659	0.02903	0.00113	1e-05	0	0	0	0	0	0	0	0	0
25.55	0	0	0	0.00045	0.04599	0.27371	0.44843	0.20121	0.02903	0.00116	2e-05	0	0	0	0	0	0	0	0	0
25.6	0	0	0	0.00042	0.04447	0.26844	0.44889	0.20517	0.03129	0.00129	3e-05	0	0	0	0	0	0	0	0	0
25.65	0	0	0	0.00036	0.04144	0.26986	0.4442	0.21015	0.03246	0.00152	1e-05	0	0	0	0	0	0	0	0	0
25.7	0	0	0	0.00034	0.04103	0.26519	0.44494	0.21389	0.03295	0.00165	1e-05	0	0	0	0	0	0	0	0	0
25.75	0	0	0	0.00038	0.03997	0.25762	0.44979	0.21666	0.03402	0.00155	1e-05	0	0	0	0	0	0	0	0	0
25.8	0	0	0	0.00031	0.03915	0.25584	0.44807	0.21883	0.03608	0.00171	1e-05	0	0	0	0	0	0	0	0	0
25.85	0	0	0	0.00027	0.03722	0.25064	0.45007	0.22394	0.03611	0.0017	5e-05	0	0	0	0	0	0	0	0	0
25.9	0	0	0	0.00032	0.03655	0.24674	0.44486	0.23154	0.03786	0.00213	0	0	0	0	0	0	0	0	0	0
25.95	0	0	0	0.00031	0.03461	0.24503	0.44573	0.23351	0.03896	0.00182	3e-05	0	0	0	0	0	0	0	0	0
26	0	0	0	0.00038	0.03312	0.2416	0.44716	0.23546	0.04046	0.00181	1e-05	0	0	0	0	0	0	0	0	0
26.05	0	0	0	0.00029	0.0333	0.23502	0.44577	0.2415	0.04177	0.00231	4e-05	0	0	0	0	0	0	0	0	0
26.1	0	0	0	0.00021	0.03168	0.23022	0.4472	0.24423	0.04398	0.00244	4e-05	0	0	0	0	0	0	0	0	0
26.15	0	0	0	0.00017	0.03116	0.23012	0.44487	0.24571	0.04557	0.00237	3e-05	0	0	0	0	0	0	0	0	0
26.2	0	0	0	0.00027	0.02863	0.22457	0.44395	0.25273	0.04716	0.00267	2e-05	0	0	0	0	0	0	0	0	0
26.25	0	0	0	0.00026	0.02746	0.22283	0.44172	0.25605	0.04881	0.00284	3e-05	0	0	0	0	0	0	0	0	0
26.3	0	0	0	0.00023	0.02713	0.22034	0.44228	0.25772	0.04875	0.00347	8e-05	0	0	0	0	0	0	0	0	0
26.35	0	0	0	0.00015	0.02638	0.21175	0.44096	0.26461	0.0529	0.0032	5e-05	0	0	0	0	0	0	0	0	0
26.4	0	0	0	0.00019	0.02581	0.20996	0.44115	0.26667	0.05277	0.00337	8e-05	0	0	0	0	0	0	0	0	0
26.45	0	0	0	0.00016	0.02455	0.20605	0.43853	0.27226	0.05469	0.00368	8e-05	0	0	0	0	0	0	0	0	0
26.5	0	0	0	0.00013	0.02269	0.20314	0.43623	0.27623	0.05765	0.00379	0.00014	0	0	0	0	0	0	0	0	0
26.55	0	0	0	0.00013	0.0225	0.1984	0.43887	0.2777	0.05817	0.00417	6e-05	0	0	0	0	0	0	0	0	0
26.6	0	0	0	0.00013	0.02129	0.19627	0.43432	0.2834	0.06019	0.00433	7e-05	0	0	0	0	0	0	0	0	0
26.65	0	0	0	0.0001	0.02064	0.19079	0.43516	0.28657	0.06232	0.00439	3e-05	0	0	0	0	0	0	0	0	0
26.7	0	0	0	0.0001	0.02	0.18659	0.43695	0.28867	0.063	0.0046	9e-05	0	0	0	0	0	0	0	0	0
26.75	0	0	0	6e-05	0.01953	0.18595	0.42889	0.29428	0.06628	0.00492	9e-05	0	0	0	0	0	0	0	0	0
26.8	0	0	0	9e-05	0.01839	0.18014	0.4277	0.30024	0.068	0.00527	0.00017	0	0	0	0	0	0	0	0	0
26.85	0	0	0	7e-05	0.01778	0.1788	0.42624	0.30115	0.071	0.00489	7e-05	0	0	0	0	0	0	0	0	0
26.9	0	0	0	0.00014	0.01765	0.17387	0.4225	0.30757	0.07247	0.00566	0.00014	0	0	0	0	0	0	0	0	0
26.95	0	0	0	9e-05	0.01609	0.17231	0.4231	0.3088	0.07347	0.00589	0.00025	0	0	0	0	0	0	0	0	0
27	0	0	0	7e-05	0.0162	0.16794	0.41792	0.31545	0.07618	0.00606	0.00018	0	0	0	0	0	0	0	0	0
27.05	0	0	0	6e-05	0.01539	0.16329	0.41814	0.31889	0.07734	0.00682	7e-05	0	0	0	0	0	0	0	0	0
27.1	0	0	0	0.00012	0.01428	0.16232	0.41651	0.3203	0.07905	0.00718	0.00024	0	0	0	0	0	0	0	0	0
27.15	0	0	0	4e-05	0.01343	0.15912	0.41347	0.32334	0.08347	0.00698	0.00015	0	0	0	0	0	0	0	0	0
27.2	0	0	0	9e-05	0.01316	0.15334	0.41173	0.32716	0.08661	0.00768	0.00023	0	0	0	0	0	0	0	0	0
27.25	0	0	0	6e-05	0.01268	0.15339	0.40796	0.33049	0.08675	0.00844	0.00022	1e-05	0	0	0	0	0	0	0	0
27.3	0	0	0	2e-05	0.01245	0.15055	0.40604	0.33375	0.08846	0.00842	0.00031	0	0	0	0	0	0	0	0	0
27.35	0	0	0	3e-05	0.01205	0.14516	0.40331	0.3396	0.09062	0.00903	0.00019	1e-05	0	0	0	0	0	0	0	0
27.4	0	0	0	3e-05	0.01093	0.14215	0.40202	0.34113	0.0945	0.00896	0.00028	0	0	0	0	0	0	0	0	0
27.45	0	0	0	1e-05	0.01096	0.14246	0.39862	0.34175	0.09631	0.00961	0.00028	0	0	0	0	0	0	0	0	0
27.5	0	0	0	4e-05	0.01066	0.13743	0.39467	0.34808	0.09865	0.01012	0.00034	1e-05	0	0	0	0	0	0	0	0
27.55	0	0	0	5e-05	0.01022	0.13309	0.39196	0.3528	0.10175	0.00978	0.00035	0	0	0	0	0	0	0	0	0
27.6	0	0	0	6e-05	0.00916	0.13054	0.39277	0.35411	0.10213	0.01086	0.00037	0	0	0	0	0	0	0	0	0
27.65	0	0	0	5e-05	0.00885	0.1307	0.38553	0.35707	0.10592	0.01154	0.00034	0	0	0	0	0	0	0	0	0
27.7	0	0	0	5e-05	0.00839	0.12545	0.38317	0.36175	0.10976	0.01102	0.00041	0	0	0	0	0	0	0	0	0
27.75	0	0	0	3e-05	0.00821	0.12244	0.38165	0.36383	0.11111	0.0124	0.00031	2e-05	0	0	0	0	0	0	0	0
27.8	0	0	0	3e-05	0.00743	0.12061	0.37665	0.36698	0.11529	0.01262	0.00039	0	0	0	0	0	0	0	0	0
27.85	0	0	0	2e-05	0.00756	0.11837	0.37641	0.36615	0.11765	0.01329	0.00054	1e-05	0	0	0	0	0	0	0	0
27.9	0	0	0	2e-05	0.00745	0.11632	0.37019	0.37035	0.12063	0.0146	0.00043	1e-05	0	0	0	0	0	0	0	0
27.95	0	0	0	2e-05	0.00727	0.11061	0.36915	0.37354	0.12437	0.01453	0.00051	0	0	0	0	0	0	0	0	0
28	0	0	0	1e-05	0.00649	0.1135	0.36291	0.37637	0.12472	0.01546	0.00053	1e-05	0	0	0	0	0	0	0	0
28.05	0	0	0	4e-05	0.00608	0.10627	0.35941	0.383	0.12897	0.0157	0.00052	1e-05	0	0	0	0	0	0	0	0
28.1	0	0	0	2e-05	0.00581	0.10648	0.35719	0.3821	0.13163	0.01618	0.00058	1e-05	0	0	0	0	0	0	0	0
28.15	0	0	0	3e-05	0.00536	0.10214	0.35597	0.3853	0.13373	0.01678	0.00069	0	0	0	0	0	0	0	0	0
28.2	0	0	0	5e-05	0.00543	0.09988	0.35143	0.38547	0.13928	0.01759	0.00086	1e-05	0	0	0	0	0	0	0	0
28.25	0	0	0	3e-05	0.00501	0.09727	0.34966	0.39051	0.13893	0.01771	0.00086	2e-05	0	0	0	0	0	0	0	0
28.3	0	0	0	0	0.0049	0.09588	0.34712	0.38981	0.1432	0.01846	0.00063	0	0	0	0	0	0	0	0	0
28.35	0	0	0	2e-05	0.00465	0.09303	0.34113	0.39361	0.1464	0.02029	0.00084	3e-05	0	0	0	0	0	0	0	0
28.4	0	0	0	2e-05	0.00437	0.09126	0.33978	0.39424	0.14846	0.02098	0.00087	2e-05	0	0	0	0	0	0	0	0
28.45	0	0	0	0	0.00428	0.09032	0.33605	0.3939	0.15326	0.02109	0.00108	2e-05	0	0	0	0	0	0	0	0
28.5	0	0	0	0	0.00444	0.0878	0.33035	0.39764	0.15666	0.02199	0.00111	1e-05	0	0	0	0	0	0	0	0
28.55	0	0	0	0	0.00374	0.08468	0.3281	0.40121	0.15864	0.02264	0.00094	5e-05	0	0	0	0	0	0	0	0
28.6	0	0	0	4e-05	0.00344	0.08289	0.32225	0.40328	0.16336	0.02364	0.00109	1e-05	0	0	0	0	0	0	0	0
28.65	0	0	0	3e-05	0.00337	0.08118	0.31934	0.40587	0.16431	0.02464	0.00124	2e-05	0	0	0	0	0	0	0	0
28.7	0	0	0	2e-05	0.00319	0.07774	0.31649	0.40609	0.1693	0.02593	0.00117	7e-05	0	0	0	0	0	0	0	0
28.75	0	0	0	0	0.00321	0.07548	0.31547	0.40433	0.17386	0.0262	0.00143	2e-05	0	0	0	0	0	0	0	0
28.8	0	0	0	0	0.00316	0.07565	0.30959	0.40655	0.17568	0.02798	0.00137	2e-05	0	0	0	0	0	0	0	0
28.85	0	0	0	0	0.00279	0.07282	0.30528	0.4075	0.18167	0.02839	0.0015	5e-05	0	0	0	0	0	0	0	0
28.9	0	0	0	1e-05	0.00295	0.07167	0.30159	0.41005	0.18247	0.02949	0.00175	2e-05	0	0	0	0	0	0	0	0
28.95	0	0	0	1e-05	0.00257	0.06813	0.30092	0.41408	0.18246	0.03006	0.00173	4e-05	0	0	0	0	0	0	0	0
29	0	0	0	0	0.00236	0.06687	0.29619	0.41448	0.18698	0.03116	0.00194	2e-05	0	0	0	0	0	0	0	0
29.05	0	0	0	0	0.0024	0.06639	0.28918	0.41488	0.19199	0.03314	0.002	2e-05	0	0	0	0	0	0	0	0
29.1	0	0	0	0	0.00187	0.06271	0.28922	0.41482	0.1955	0.03383	0.00203	2e-05	0	0	0	0	0	0	0	0
29.15	0	0	0	1e-05	0.00211	0.06212	0.2873	0.41263	0.19799	0.03578	0.002	5e-05	1e-05	0	0	0	0	0	0	0
29.2	0	0	0	2e-05	0.00191	0.06027	0.28054	0.41315	0.20524	0.03649	0.00233	5e-05	0	0	0	0	0	0	0	0
29.25	0	0	0	0	0.00186	0.05869	0.2779	0.4157	0.20684	0.0365	0.00247	4e-05	0	0	0	0	0	0	0	0
29.3	0	0	0	0	0.00191	0.05581	0.27388	0.41591	0.21167	0.03821	0.00258	3e-05	0	0	0	0	0	0	0	0
29.35	0	0	0	0	0.00146	0.05494	0.27125	0.41726	0.21269	0.03993	0.00245	2e-05	0	0	0	0	0	0	0	0
29.4	0	0	0	0	0.00137	0.05405	0.26719	0.41766	0.21683	0.04043	0.00246	1e-05	0	0	0	0	0	0	0	0
29.45	0	0	0	0	0.00145	0.05183	0.26628	0.41588	0.21788	0.04379	0.00278	0.00011	0	0	0	0	0	0	0	0
29.5	0	0	0	0	0.00126	0.05055	0.26162	0.41842	0.22119	0.04397	0.00289	9e-05	1e-05	0	0	0	0	0	0	0
29.55	0	0	0	0	0.00126	0.04946	0.2571	0.41718	0.22678	0.0452	0.00291	0.00011	0	0	0	0	0	0	0	0
29.6	0	0	0	0	0.00124	0.04734	0.25335	0.41905	0.23042	0.0453	0.00326	4e-05	0	0	0	0	0	0	0	0
29.65	0	0	0	0	0.00112	0.04559	0.24953	0.41962	0.23262	0.04786	0.00356	0.0001	0	0	0	0	0	0	0	0
29.7	0	0	0	0	0.00104	0.04564	0.24482	0.41988	0.2365	0.0482	0.00387	5e-05	0	0	0	0	0	0	0	0
29.75	0	0	0	1e-05	0.00101	0.04375	0.24102	0.41719	0.24137	0.0514	0.00413	0.00012	0	0	0	0	0	0	0	0
29.8	0	0	0	0	0.00085	0.04277	0.23921	0.41637	0.24428	0.05205	0.00435	0.00012	0	0	0	0	0	0	0	0
29.85	0	0	0	0	0.00101	0.04122	0.23607	0.41611	0.24849	0.05266	0.00431	0.00013	0	0	0	0	0	0	0	0
29.9	0	0	0	0	0.00075	0.04124	0.22914	0.41937	0.25059	0.05453	0.00423	0.00015	0	0	0	0	0	0	0	0
29.95	0	0	0	0	0.00085	0.03933	0.22849	0.41229	0.25549	0.05852	0.00485	0.00018	0	0	0	0	0	0	0	0
30	0	0	0	0	0.00088	0.03761	0.22469	0.41175	0.25968	0.06029	0.005	0.0001	0	0	0	0	0	0	0	0
30.05	0	0	0	0	0.00086	0.03662	0.2216	0.41589	0.25882	0.06099	0.00506	0.00016	0	0	0	0	0	0	0	0
30.1	0	0	0	1e-05	0.00075	0.03475	0.21746	0.41293	0.26551	0.06282	0.00566	0.00011	0	0	0	0	0	0	0	0
30.15	0	0	0	0	0.00064	0.03479	0.21475	0.41388	0.26747	0.06262	0.00573	0.00012	0	0	0	0	0	0	0	0
30.2	0	0	0	0	0.00057	0.03334	0.21178	0.41061	0.27171	0.06598	0.00585	0.00015	1e-05	0	0	0	0	0	0	0
30.25	0	0	0	1e-05	0.00057	0.03297	0.20675	0.41014	0.27616	0.06671	0.00653	0.00016	0	0	0	0	0	0	0	0
30.3	0	0	0	1e-05	0.00049	0.03226	0.20489	0.40619	0.27898	0.07036	0.00653	0.00028	1e-05	0	0	0	0	0	0	0
30.35	0	0	0	0	0.00055	0.03053	0.20152	0.40759	0.28104	0.07162	0.00702	0.00013	0	0	0	0	0	0	0	0
30.4	0	0	0	0	0.00048	0.02887	0.19765	0.4105	0.28323	0.07236	0.00665	0.00026	0	0	0	0	0	0	0	0
30.45	0	0	0	0	0.00058	0.0294	0.19301	0.40582	0.28817	0.07543	0.00736	0.00023	0	0	0	0	0	0	0	0
30.5	0	0	0	0	0.0004	0.02707	0.19181	0.40279	0.2926	0.07719	0.00784	0.0003	0	0	0	0	0	0	0	0
30.55	0	0	0	0	0.0005	0.02576	0.18839	0.40248	0.29536	0.07911	0.00815	0.00024	1e-05	0	0	0	0	0	0	0
30.6	0	0	0	1e-05	0.0004	0.02556	0.18668	0.39855	0.29685	0.08272	0.00887	0.00036	0	0	0	0	0	0	0	0
30.65	0	0	0	0	0.00038	0.02562	0.1827	0.39769	0.30017	0.08374	0.00935	0.00035	0	0	0	0	0	0	0	0
30.7	0	0	0	0	0.00041	0.02444	0.18062	0.39576	0.3029	0.08621	0.00927	0.00039	0	0	0	0	0	0	0	0
30.75	0	0	0	0	0.00036	0.0232	0.1771	0.39358	0.30756	0.08796	0.00981	0.00041	2e-05	0	0	0	0	0	0	0
30.8	0	0	0	0	0.0003	0.02357	0.17016	0.39577	0.31056	0.08963	0.0096	0.00041	0	0	0	0	0	0	0	0
30.85	0	0	0	0	0.00028	0.02235	0.17329	0.38816	0.31334	0.09147	0.01053	0.00058	0	0	0	0	0	0	0	0
30.9	0	0	0	0	0.0003	0.0217	0.16643	0.38953	0.31462	0.09633	0.01059	0.0005	0	0	0	0	0	0	0	0
30.95	0	0	0	0	0.00027	0.02052	0.16592	0.38471	0.31832	0.09895	0.01084	0.00044	3e-05	0	0	0	0	0	0	0
31	0	0	0	0	0.00023	0.01952	0.16132	0.38319	0.32366	0.09917	0.01231	0.00059	1e-05	0	0	0	0	0	0	0
31.05	0	0	0	0	0.00019	0.02022	0.15565	0.38302	0.3274	0.10006	0.01279	0.00065	2e-05	0	0	0	0	0	0	0
31.1	0	0	0	0	0.00023	0.01788	0.15471	0.38227	0.32789	0.10252	0.01395	0.00055	0	0	0	0	0	0	0	0
31.15	0	0	0	1e-05	0.00017	0.01798	0.15305	0.37916	0.32998	0.10516	0.01395	0.00054	0	0	0	0	0	0	0	0
31.2	0	0	0	0	0.00022	0.01769	0.14825	0.37619	0.33368	0.10948	0.01371	0.00077	1e-05	0	0	0	0	0	0	0
31.25	0	0	0	0	0.00014	0.01716	0.14909	0.3735	0.33339	0.11151	0.01448	0.00068	5e-05	0	0	0	0	0	0	0
31.3	0	0	0	0	0.00017	0.01561	0.14467	0.373	0.33821	0.11306	0.01459	0.00069	0	0	0	0	0	0	0	0
31.35	0	0	0	0	0.00018	0.01583	0.13972	0.36685	0.34534	0.11589	0.01545	0.00073	1e-05	0	0	0	0	0	0	0
31.4	0	0	0	0	0.00017	0.01555	0.13691	0.36542	0.34705	0.1183	0.01577	0.00083	0	0	0	0	0	0	0	0
31.45	0	0	0	0	0.00021	0.01472	0.13428	0.36405	0.34511	0.12317	0.01764	0.00079	2e-05	1e-05	0	0	0	0	0	0
31.5	0	0	0	0	0.00016	0.01417	0.13444	0.36082	0.34864	0.12334	0.01759	0.00081	3e-05	0	0	0	0	0	0	0
31.55	0	0	0	0	0.00012	0.01363	0.13024	0.36045	0.34817	0.12818	0.01824	0.00096	1e-05	0	0	0	0	0	0	0
31.6	0	0	0	0	9e-05	0.0132	0.1277	0.35763	0.35442	0.12796	0.0181	0.00086	4e-05	0	0	0	0	0	0	0
31.65	0	0	0	0	0.0001	0.01233	0.12526	0.35608	0.35491	0.13128	0.01906	0.00097	1e-05	0	0	0	0	0	0	0
31.7	0	0	0	0	7e-05	0.01144	0.12161	0.35106	0.35943	0.13493	0.02027	0.00119	0	0	0	0	0	0	0	0
31.75	0	0	0	0	5e-05	0.01109	0.12045	0.35044	0.3596	0.13649	0.02073	0.00114	1e-05	0	0	0	0	0	0	0
31.8	0	0	0	0	8e-05	0.01103	0.11858	0.34409	0.36322	0.13984	0.02186	0.00125	5e-05	0	0	0	0	0	0	0
31.85	0	0	0	0	0.00012	0.01028	0.11261	0.34506	0.36628	0.14207	0.0223	0.00125	3e-05	0	0	0	0	0	0	0
31.9	0	0	0	0	0.00012	0.01002	0.11303	0.33699	0.36986	0.14526	0.02326	0.00144	2e-05	0	0	0	0	0	0	0
31.95	0	0	0	0	5e-05	0.00979	0.11167	0.33587	0.37073	0.14723	0.02318	0.00143	5e-05	0	0	0	0	0	0	0
32	0	0	0	0	8e-05	0.01014	0.10877	0.33418	0.36928	0.15142	0.0244	0.00164	9e-05	0	0	0	0	0	0	0
32.05	0	0	0	0	4e-05	0.00884	0.10618	0.33295	0.37086	0.15448	0.02507	0.00155	3e-05	0	0	0	0	0	0	0
32.1	0	0	0	0	3e-05	0.00866	0.10467	0.32771	0.37191	0.15873	0.02657	0.0017	2e-05	0	0	0	0	0	0	0
32.15	0	0	0	0	9e-05	0.00845	0.1026	0.32269	0.37582	0.16118	0.02758	0.00157	2e-05	0	0	0	0	0	0	0
32.2	0	0	0	0	4e-05	0.008	0.09748	0.32115	0.37934	0.16407	0.0281	0.00178	4e-05	0	0	0	0	0	0	0
32.25	0	0	0	0	5e-05	0.00788	0.09603	0.32086	0.37704	0.1665	0.02943	0.00216	5e-05	0	0	0	0	0	0	0
32.3	0	0	0	0	3e-05	0.00743	0.09518	0.3174	0.37774	0.16996	0.03015	0.00205	6e-05	0	0	0	0	0	0	0
32.35	0	0	0	0	3e-05	0.00701	0.09415	0.31228	0.37926	0.17364	0.03165	0.00188	0.0001	0	0	0	0	0	0	0
32.4	0	0	0	0	6e-05	0.00663	0.08922	0.31192	0.38437	0.1741	0.03159	0.00206	5e-05	0	0	0	0	0	0	0
32.45	0	0	0	0	2e-05	0.0067	0.08935	0.30699	0.3842	0.17638	0.03377	0.00255	4e-05	0	0	0	0	0	0	0
32.5	0	0	0	0	6e-05	0.00612	0.08544	0.30409	0.387	0.17937	0.03529	0.00259	4e-05	0	0	0	0	0	0	0
32.55	0	0	0	0	4e-05	0.00596	0.08476	0.30276	0.38501	0.18267	0.03607	0.00267	6e-05	0	0	0	0	0	0	0
32.6	0	0	0	0	2e-05	0.00606	0.08317	0.29898	0.38621	0.18613	0.03647	0.00291	5e-05	0	0	0	0	0	0	0
32.65	0	0	0	0	2e-05	0.00585	0.07977	0.29337	0.38917	0.19092	0.0379	0.00291	9e-05	0	0	0	0	0	0	0
32.7	0	0	0	1e-05	1e-05	0.00534	0.0779	0.29108	0.391	0.19258	0.03897	0.00299	0.00012	0	0	0	0	0	0	0
32.75	0	0	0	0	2e-05	0.00531	0.07788	0.28833	0.38897	0.19536	0.04069	0.00331	0.00013	0	0	0	0	0	0	0
32.8	0	0	0	0	3e-05	0.0048	0.0742	0.2844	0.39221	0.19971	0.04123	0.00334	8e-05	0	0	0	0	0	0	0
32.85	0	0	0	0	4e-05	0.00463	0.07243	0.28239	0.38974	0.2046	0.04271	0.00338	8e-05	0	0	0	0	0	0	0
32.9	0	0	0	0	0	0.00427	0.0707	0.27751	0.39467	0.20483	0.04392	0.00397	0.00013	0	0	0	0	0	0	0
32.95	0	0	0	0	3e-05	0.00425	0.07021	0.27328	0.39434	0.20905	0.04492	0.00381	0.0001	1e-05	0	0	0	0	0	0
33	0	0	0	0	3e-05	0.00434	0.06709	0.27229	0.39396	0.21146	0.04662	0.0041	0.00011	0	0	0	0	0	0	0
33.05	0	0	0	0	0	0.00378	0.06722	0.26772	0.39207	0.21563	0.04892	0.00454	0.00012	0	0	0	0	0	0	0
33.1	0	0	0	0	1e-05	0.00353	0.06534	0.26487	0.39266	0.21891	0.04981	0.00471	0.00016	0	0	0	0	0	0	0
33.15	0	0	0	0	1e-05	0.00352	0.06292	0.26443	0.39359	0.22052	0.05025	0.00464	0.00012	0	0	0	0	0	0	0
33.2	0	0	0	0	1e-05	0.00333	0.06111	0.25916	0.39466	0.22358	0.05271	0.00522	0.00022	0	0	0	0	0	0	0
33.25	0	0	0	0	2e-05	0.00313	0.05846	0.25628	0.39379	0.22962	0.05372	0.00481	0.00017	0	0	0	0	0	0	0
33.3	0	0	0	0	0	0.00305	0.05994	0.25193	0.39461	0.23084	0.05376	0.00563	0.00023	1e-05	0	0	0	0	0	0
33.35	0	0	0	0	1e-05	0.003	0.05703	0.24951	0.39456	0.23447	0.05598	0.00523	0.00021	0	0	0	0	0	0	0
33.4	0	0	0	0	1e-05	0.00265	0.05632	0.24949	0.39085	0.2369	0.05808	0.00557	0.00013	0	0	0	0	0	0	0
33.45	0	0	0	0	0	0.00269	0.05405	0.24524	0.39348	0.23804	0.06004	0.00621	0.00024	1e-05	0	0	0	0	0	0
33.5	0	0	0	0	1e-05	0.00266	0.05283	0.24167	0.39194	0.24374	0.06052	0.00639	0.00024	0	0	0	0	0	0	0
33.55	0	0	0	0	1e-05	0.00208	0.051	0.23765	0.39086	0.24835	0.06326	0.00655	0.00022	2e-05	0	0	0	0	0	0
33.6	0	0	0	0	3e-05	0.00236	0.0505	0.23382	0.39325	0.24897	0.064	0.0067	0.00037	0	0	0	0	0	0	0
33.65	0	0	0	0	0	0.00207	0.04916	0.23089	0.39186	0.25253	0.06534	0.0078	0.00035	0	0	0	0	0	0	0
33.7	0	0	0	0	1e-05	0.00214	0.0472	0.22922	0.39088	0.25402	0.0689	0.00728	0.00035	0	0	0	0	0	0	0
33.75	0	0	0	0	0	0.00202	0.04565	0.22638	0.38887	0.25996	0.06884	0.00799	0.00029	0	0	0	0	0	0	0
33.8	0	0	0	0	0	0.00181	0.04457	0.22377	0.38918	0.25999	0.07179	0.00856	0.00033	0	0	0	0	0	0	0
33.85	0	0	0	0	3e-05	0.00162	0.04318	0.21702	0.38936	0.26651	0.07317	0.00887	0.00024	0	0	0	0	0	0	0
33.9	0	0	0	0	0	0.00185	0.04241	0.21882	0.3871	0.26461	0.07603	0.00874	0.00043	1e-05	0	0	0	0	0	0
33.95	0	0	0	0	0	0.00164	0.04107	0.21225	0.38839	0.2703	0.07692	0.009	0.00041	2e-05	0	0	0	0	0	0
34	0	0	0	0	0	0.00146	0.04056	0.21055	0.38569	0.27286	0.07916	0.00929	0.00042	1e-05	0	0	0	0	0	0
34.05	0	0	0	0	0	0.00133	0.03865	0.20942	0.38379	0.2745	0.08134	0.01048	0.00049	0	0	0	0	0	0	0
34.1	0	0	0	0	0	0.00129	0.03696	0.20432	0.38417	0.27962	0.08269	0.01042	0.00052	1e-05	0	0	0	0	0	0
34.15	0	0	0	0	0	0.00136	0.03595	0.20171	0.38271	0.28191	0.0855	0.01037	0.00048	1e-05	0	0	0	0	0	0
34.2	0	0	0	0	0	0.0013	0.03644	0.19976	0.38013	0.2849	0.08518	0.01173	0.00055	1e-05	0	0	0	0	0	0
34.25	0	0	0	0	0	0.00132	0.03657	0.19379	0.38038	0.2882	0.0873	0.0118	0.00061	2e-05	1e-05	0	0	0	0	0
34.3	0	0	0	0	0	0.00119	0.03404	0.19179	0.37949	0.29293	0.08846	0.01145	0.00063	2e-05	0	0	0	0	0	0
34.35	0	0	0	0	1e-05	0.00096	0.03334	0.18739	0.37754	0.2926	0.0951	0.0123	0.00074	2e-05	0	0	0	0	0	0
34.4	0	0	0	0	1e-05	0.00106	0.03314	0.18362	0.37728	0.29582	0.09544	0.01287	0.00074	2e-05	0	0	0	0	0	0
34.45	0	0	0	0	0	0.00075	0.03059	0.18178	0.37774	0.29814	0.09684	0.01335	0.00077	4e-05	0	0	0	0	0	0
34.5	0	0	0	0	0	0.00107	0.03064	0.17839	0.37449	0.30208	0.09915	0.01346	0.00072	0	0	0	0	0	0	0
34.55	0	0	0	0	0	0.00093	0.02918	0.17789	0.36944	0.30605	0.10138	0.01439	0.00073	1e-05	0	0	0	0	0	0
34.6	0	0	0	0	0	0.00085	0.02831	0.17451	0.36971	0.30864	0.10238	0.01471	0.00087	2e-05	0	0	0	0	0	0
34.65	0	0	0	0	0	0.0008	0.0284	0.17313	0.36873	0.30714	0.10573	0.01522	0.00085	0	0	0	0	0	0	0
34.7	0	0	0	0	1e-05	0.00087	0.02756	0.16786	0.36644	0.31287	0.10733	0.01607	0.00095	4e-05	0	0	0	0	0	0
34.75	0	0	0	0	0	0.00081	0.02631	0.16479	0.36329	0.31717	0.11038	0.01624	0.00101	0	0	0	0	0	0	0
34.8	0	0	0	0	1e-05	0.00057	0.02496	0.16304	0.365	0.31526	0.11299	0.01699	0.00113	5e-05	0	0	0	0	0	0
34.85	0	0	0	0	0	0.00059	0.0246	0.16129	0.36288	0.31698	0.11499	0.01771	0.00095	1e-05	0	0	0	0	0	0
34.9	0	0	0	0	0	0.0006	0.02515	0.15612	0.36014	0.32176	0.11643	0.01847	0.0013	3e-05	0	0	0	0	0	0
34.95	0	0	0	0	0	0.00058	0.02292	0.15458	0.35696	0.32705	0.11797	0.01868	0.00124	2e-05	0	0	0	0	0	0
35	0	0	0	0	1e-05	0.00061	0.02242	0.15013	0.35621	0.32637	0.12267	0.02007	0.00147	4e-05	0	0	0	0	0	0
35.05	0	0	0	0	0	0.00048	0.02138	0.14951	0.35695	0.32538	0.12423	0.02095	0.00108	4e-05	0	0	0	0	0	0
35.1	0	0	0	0	0	0.00041	0.02131	0.14692	0.34959	0.33081	0.12825	0.021	0.00163	8e-05	0	0	0	0	0	0
35.15	0	0	0	0	1e-05	0.00032	0.02006	0.1446	0.35022	0.33314	0.12864	0.02143	0.00154	4e-05	0	0	0	0	0	0
35.2	0	0	0	0	0	0.00035	0.02017	0.14194	0.34569	0.3359	0.13262	0.02183	0.00148	2e-05	0	0	0	0	0	0
35.25	0	0	0	0	0	0.00031	0.0192	0.1389	0.34275	0.34006	0.1339	0.0233	0.00155	3e-05	0	0	0	0	0	0
35.3	0	0	0	0	0	0.00037	0.01885	0.1346	0.34265	0.33967	0.13844	0.0238	0.00154	8e-05	0	0	0	0	0	0
35.35	0	0	0	0	0	0.00034	0.01814	0.13469	0.33892	0.34174	0.13966	0.02476	0.00166	9e-05	0	0	0	0	0	0
35.4	0	0	0	0	0	0.00042	0.01776	0.13233	0.33589	0.34355	0.14203	0.02594	0.00198	9e-05	1e-05	0	0	0	0	0
35.45	0	0	0	0	1e-05	0.00027	0.01624	0.12993	0.33613	0.34578	0.14269	0.02665	0.00223	7e-05	0	0	0	0	0	0
35.5	0	0	0	0	0	0.00028	0.01604	0.12471	0.33226	0.34637	0.15087	0.02718	0.0022	9e-05	0	0	0	0	0	0
35.55	0	0	0	0	0	0.00038	0.01503	0.12385	0.33162	0.34963	0.14833	0.02875	0.00231	0.0001	0	0	0	0	0	0
35.6	0	0	0	0	0	0.00029	0.01506	0.12173	0.32551	0.35135	0.15489	0.02865	0.00244	8e-05	0	0	0	0	0	0
35.65	0	0	0	0	0	0.00018	0.01517	0.12148	0.32453	0.3503	0.15525	0.03027	0.00271	0.00011	0	0	0	0	0	0
35.7	0	0	0	0	0	0.00024	0.01415	0.11852	0.32593	0.35116	0.15687	0.03015	0.00291	7e-05	0	0	0	0	0	0
35.75	0	0	0	0	0	0.00025	0.01393	0.1165	0.31995	0.35486	0.15909	0.03281	0.00256	5e-05	0	0	0	0	0	0
35.8	0	0	0	0	0	0.00025	0.0136	0.11199	0.31916	0.35583	0.16431	0.03197	0.00281	8e-05	0	0	0	0	0	0
35.85	0	0	0	0	0	0.0003	0.01292	0.11201	0.31528	0.35799	0.16393	0.03435	0.00309	0.00013	0	0	0	0	0	0
35.9	0	0	0	0	0	0.00017	0.01192	0.10925	0.31574	0.35782	0.16718	0.03475	0.00304	0.00013	0	0	0	0	0	0
35.95	0	0	0	0	0	0.00017	0.0122	0.10478	0.31416	0.35868	0.17138	0.03548	0.00305	0.0001	0	0	0	0	0	0
36	0	0	0	0	0	0.00026	0.01176	0.10555	0.30635	0.3618	0.17389	0.03688	0.00337	0.00014	0	0	0	0	0	0
36.05	0	0	0	0	0	0.00019	0.01077	0.10228	0.30691	0.36345	0.1748	0.03805	0.00342	0.00013	0	0	0	0	0	0
36.1	0	0	0	0	0	0.00017	0.01122	0.09958	0.3015	0.36563	0.17886	0.03901	0.00388	0.00015	0	0	0	0	0	0
36.15	0	0	0	0	0	0.00013	0.01119	0.09757	0.29793	0.36643	0.18173	0.04124	0.00359	0.00018	1e-05	0	0	0	0	0
36.2	0	0	0	0	0	0.00016	0.01007	0.09602	0.29721	0.36363	0.187	0.04168	0.00406	0.00017	0	0	0	0	0	0
36.25	0	0	0	0	1e-05	0.00015	0.00956	0.09547	0.29576	0.36426	0.18853	0.04188	0.00411	0.00027	0	0	0	0	0	0
36.3	0	0	0	0	0	0.00018	0.00941	0.09203	0.29305	0.36764	0.18968	0.0434	0.00448	0.00012	1e-05	0	0	0	0	0
36.35	0	0	0	0	0	8e-05	0.00898	0.09126	0.28841	0.36839	0.19497	0.04344	0.0043	0.00015	2e-05	0	0	0	0	0
36.4	0	0	0	0	0	0.00013	0.00896	0.08722	0.28763	0.36962	0.19418	0.04713	0.00496	0.00017	0	0	0	0	0	0
36.45	0	0	0	0	0	8e-05	0.00837	0.08545	0.28561	0.37088	0.19846	0.04611	0.00488	0.00016	0	0	0	0	0	0
36.5	0	0	0	0	0	9e-05	0.00824	0.08603	0.28136	0.36749	0.20391	0.04761	0.00506	0.0002	1e-05	0	0	0	0	0
36.55	0	0	0	0	0	0.00011	0.0083	0.08247	0.27946	0.36873	0.20424	0.05083	0.00559	0.00025	2e-05	0	0	0	0	0
36.6	0	0	0	0	0	0.0001	0.00744	0.08101	0.27736	0.36909	0.2076	0.05149	0.00564	0.00024	3e-05	0	0	0	0	0
36.65	0	0	0	0	0	9e-05	0.00687	0.08019	0.26983	0.37159	0.21202	0.05319	0.00591	0.00031	0	0	0	0	0	0
36.7	0	0	0	0	0	6e-05	0.00693	0.07779	0.26923	0.37048	0.21479	0.05401	0.00641	0.0003	0	0	0	0	0	0
36.75	0	0	0	0	0	8e-05	0.0067	0.07683	0.26764	0.37172	0.21597	0.05444	0.0063	0.0003	2e-05	0	0	0	0	0
36.8	0	0	0	0	0	4e-05	0.00649	0.07324	0.26352	0.37312	0.22018	0.0567	0.00644	0.00027	0	0	0	0	0	0
36.85	0	0	0	0	0	5e-05	0.00622	0.07248	0.26014	0.37338	0.22283	0.05816	0.00636	0.00038	0	0	0	0	0	0
36.9	0	0	0	0	0	6e-05	0.00586	0.07132	0.25987	0.37041	0.22441	0.06041	0.00716	0.00048	2e-05	0	0	0	0	0
36.95	0	0	0	0	0	0.00011	0.00562	0.07026	0.25483	0.37242	0.22969	0.05948	0.00708	0.00049	2e-05	0	0	0	0	0
37	0	0	0	0	0	6e-05	0.00562	0.06684	0.25307	0.3754	0.23009	0.06098	0.00747	0.00046	1e-05	0	0	0	0	0
37.05	0	0	0	0	0	4e-05	0.00502	0.06588	0.2494	0.37295	0.2345	0.06458	0.00719	0.00043	1e-05	0	0	0	0	0
37.1	0	0	0	0	0	6e-05	0.00543	0.06559	0.24409	0.37329	0.23641	0.06656	0.00818	0.00039	0	0	0	0	0	0
37.15	0	0	0	0	0	2e-05	0.00504	0.06291	0.24258	0.37411	0.23995	0.06624	0.00867	0.00048	0	0	0	0	0	0
37.2	0	0	0	0	0	5e-05	0.00481	0.06254	0.24246	0.3714	0.24043	0.06891	0.00889	0.0005	1e-05	0	0	0	0	0
37.25	0	0	0	0	0	3e-05	0.00471	0.06158	0.23818	0.37304	0.24131	0.07137	0.00914	0.0006	4e-05	0	0	0	0	0
37.3	0	0	0	0	0	3e-05	0.00421	0.05917	0.23696	0.37074	0.2473	0.07176	0.0094	0.00042	1e-05	0	0	0	0	0
37.35	0	0	0	0	0	6e-05	0.00428	0.0565	0.23435	0.37445	0.24643	0.07348	0.00966	0.00078	1e-05	0	0	0	0	0
37.4	0	0	0	0	0	0	0.00406	0.05652	0.22897	0.37349	0.25024	0.07549	0.01053	0.00068	2e-05	0	0	0	0	0
37.45	0	0	0	0	0	2e-05	0.00397	0.05596	0.2256	0.3712	0.25578	0.07681	0.01008	0.00057	1e-05	0	0	0	0	0
37.5	0	0	0	0	0	5e-05	0.00391	0.05312	0.22536	0.37039	0.25599	0.07897	0.01133	0.00086	2e-05	0	0	0	0	0
37.55	0	0	0	0	0	2e-05	0.00324	0.05228	0.22116	0.37202	0.2579	0.08104	0.01169	0.00064	1e-05	0	0	0	0	0
37.6	0	0	0	0	0	5e-05	0.00352	0.05153	0.21731	0.37072	0.26294	0.08153	0.01162	0.00075	3e-05	0	0	0	0	0
37.65	0	0	0	0	0	2e-05	0.00333	0.05017	0.21759	0.36557	0.26584	0.08459	0.01215	0.00074	0	0	0	0	0	0
37.7	0	0	0	0	0	2e-05	0.00297	0.04891	0.21116	0.37101	0.26632	0.08534	0.01346	0.0008	1e-05	0	0	0	0	0
37.75	0	0	0	0	0	0	0.00316	0.04677	0.20961	0.36688	0.27028	0.08963	0.01293	0.00072	2e-05	0	0	0	0	0
37.8	0	0	0	0	0	5e-05	0.00301	0.0463	0.20608	0.3664	0.27385	0.08963	0.01381	0.00085	2e-05	0	0	0	0	0
37.85	0	0	0	0	0	2e-05	0.0027	0.04539	0.20435	0.36476	0.2763	0.09141	0.01412	0.00094	1e-05	0	0	0	0	0
37.9	0	0	0	0	0	1e-05	0.00256	0.04471	0.20011	0.36443	0.27845	0.09432	0.01434	0.00104	3e-05	0	0	0	0	0
37.95	0	0	0	0	0	2e-05	0.00275	0.04276	0.20009	0.36136	0.28241	0.0951	0.01445	0.00103	3e-05	0	0	0	0	0
38	0	0	0	0	0	1e-05	0.00228	0.04264	0.19411	0.36161	0.28472	0.09771	0.01568	0.00122	2e-05	0	0	0	0	0
38.05	0	0	0	0	0	0	0.00229	0.03979	0.19378	0.36225	0.28415	0.10042	0.01602	0.00127	3e-05	0	0	0	0	0
38.1	0	0	0	0	0	1e-05	0.00207	0.04001	0.19042	0.36117	0.28718	0.10172	0.01624	0.00117	1e-05	0	0	0	0	0
38.15	0	0	0	0	0	1e-05	0.0022	0.03852	0.18912	0.35791	0.29074	0.10303	0.01717	0.0013	0	0	0	0	0	0
38.2	0	0	0	0	0	0	0.00219	0.0381	0.18403	0.3583	0.29249	0.10592	0.01765	0.00127	5e-05	0	0	0	0	0
38.25	0	0	0	0	0	4e-05	0.00189	0.03792	0.18111	0.35604	0.29497	0.10865	0.01793	0.00142	3e-05	0	0	0	0	0
38.3	0	0	0	0	0	1e-05	0.00195	0.03628	0.18053	0.35183	0.2978	0.11138	0.01882	0.00136	4e-05	0	0	0	0	0
38.35	0	0	0	0	0	1e-05	0.00171	0.03481	0.17903	0.35195	0.30022	0.11122	0.0196	0.00139	6e-05	0	0	0	0	0
38.4	0	0	0	0	0	2e-05	0.00167	0.03455	0.17365	0.35032	0.30262	0.11577	0.01989	0.00142	9e-05	0	0	0	0	0
38.45	0	0	0	0	0	2e-05	0.00164	0.03358	0.17329	0.34942	0.30313	0.11624	0.02092	0.00172	4e-05	0	0	0	0	0
38.5	0	0	0	0	0	0	0.00144	0.03197	0.16855	0.34812	0.30663	0.12042	0.02128	0.00157	2e-05	0	0	0	0	0
38.55	0	0	0	0	0	2e-05	0.0016	0.03188	0.1661	0.34564	0.31033	0.12066	0.02201	0.00169	7e-05	0	0	0	0	0
38.6	0	0	0	0	0	2e-05	0.00116	0.03009	0.16718	0.34341	0.31012	0.12282	0.02302	0.0021	8e-05	0	0	0	0	0
38.65	0	0	0	0	0	1e-05	0.00127	0.03007	0.16154	0.34192	0.31408	0.12588	0.02344	0.00173	6e-05	0	0	0	0	0
38.7	0	0	0	0	0	0	0.00117	0.02826	0.16053	0.34164	0.31419	0.12681	0.02511	0.00223	5e-05	1e-05	0	0	0	0
38.75	0	0	0	0	0	0	0.0011	0.02818	0.15689	0.33957	0.31776	0.12914	0.02515	0.00209	0.00011	1e-05	0	0	0	0
38.8	0	0	0	0	0	1e-05	0.00107	0.02719	0.15378	0.33921	0.31877	0.13176	0.02587	0.00222	0.00012	0	0	0	0	0
38.85	0	0	0	0	0	1e-05	0.00099	0.02685	0.1508	0.33899	0.31915	0.13503	0.02562	0.00247	9e-05	0	0	0	0	0
38.9	0	0	0	0	0	2e-05	0.00129	0.02576	0.1493	0.33479	0.32198	0.1374	0.02644	0.00293	8e-05	1e-05	0	0	0	0
38.95	0	0	0	0	0	0	0.00108	0.0258	0.14896	0.3317	0.32213	0.13921	0.02832	0.00268	0.00012	0	0	0	0	0
39	0	0	0	0	0	1e-05	0.00104	0.02467	0.14433	0.3308	0.32612	0.14038	0.02959	0.00297	9e-05	0	0	0	0	0
39.05	0	0	0	0	0	0	0.00088	0.02406	0.14305	0.32756	0.32538	0.14573	0.03035	0.00288	0.00011	0	0	0	0	0
39.1	0	0	0	0	0	0	0.00059	0.02338	0.13962	0.32484	0.33087	0.1482	0.02937	0.00303	0.0001	0	0	0	0	0
39.15	0	0	0	0	0	0	0.00103	0.02251	0.13669	0.32528	0.32994	0.15032	0.03083	0.00325	0.00015	0	0	0	0	0
39.2	0	0	0	0	0	0	0.00084	0.02202	0.13466	0.32368	0.3304	0.15202	0.03272	0.00357	8e-05	1e-05	0	0	0	0
39.25	0	0	0	0	0	0	0.00064	0.02086	0.13343	0.32092	0.33449	0.15254	0.03327	0.00366	0.00019	0	0	0	0	0
39.3	0	0	0	0	0	0	0.00085	0.02006	0.13163	0.31947	0.33374	0.15678	0.03395	0.00336	0.00016	0	0	0	0	0
39.35	0	0	0	0	0	0	0.00088	0.02009	0.12776	0.3161	0.33705	0.15917	0.03536	0.00345	0.00014	0	0	0	0	0
39.4	0	0	0	0	0	0	0.00069	0.0188	0.12683	0.31391	0.33622	0.16334	0.03584	0.00414	0.00022	1e-05	0	0	0	0
39.45	0	0	0	0	0	1e-05	0.00057	0.01945	0.12414	0.31173	0.33793	0.16449	0.03724	0.00427	0.00017	0	0	0	0	0
39.5	0	0	0	0	0	1e-05	0.00057	0.01802	0.12103	0.31151	0.34109	0.16631	0.03722	0.00409	0.00015	0	0	0	0	0
39.55	0	0	0	0	0	0	0.00048	0.01778	0.12258	0.3055	0.3394	0.17091	0.03868	0.0045	0.00016	1e-05	0	0	0	0
39.6	0	0	0	0	0	0	0.00063	0.01665	0.11985	0.30459	0.34303	0.17031	0.0404	0.00438	0.00015	1e-05	0	0	0	0
39.65	0	0	0	0	0	0	0.00065	0.01749	0.11644	0.30144	0.34478	0.1736	0.04053	0.00478	0.00029	0	0	0	0	0
39.7	0	0	0	0	0	0	0.00053	0.01655	0.11449	0.30044	0.34334	0.17519	0.04438	0.00478	0.00028	2e-05	0	0	0	0
39.75	0	0	0	0	0	0	0.00054	0.01634	0.11217	0.29537	0.34736	0.17889	0.04405	0.0049	0.00038	0	0	0	0	0
39.8	0	0	0	0	0	0	0.00055	0.01524	0.11	0.29849	0.34458	0.18154	0.04391	0.00533	0.00036	0	0	0	0	0
39.85	0	0	0	0	0	0	0.00044	0.01454	0.10829	0.29067	0.34955	0.18475	0.0458	0.00564	0.00031	1e-05	0	0	0	0
39.9	0	0	0	0	0	1e-05	0.00049	0.0138	0.10592	0.28985	0.35079	0.18626	0.0467	0.00587	0.0003	1e-05	0	0	0	0
39.95	0	0	0	0	0	0	0.0004	0.01416	0.1032	0.28832	0.35016	0.18901	0.04817	0.00623	0.00035	0	0	0	0	0
40	0	0	0	0	0	0	0.00045	0.01309	0.10137	0.28633	0.35023	0.19271	0.04943	0.006	0.00038	1e-05	0	0	0	0
40.05	0	0	0	0	0	0	0.00032	0.01298	0.09954	0.28234	0.3538	0.19304	0.05142	0.0062	0.00035	1e-05	0	0	0	0
40.1	0	0	0	0	0	0	0.00032	0.01244	0.09768	0.281	0.35078	0.19898	0.05225	0.00619	0.00035	1e-05	0	0	0	0
40.15	0	0	0	0	0	0	0.00027	0.01234	0.09607	0.27807	0.35171	0.20063	0.05331	0.00728	0.00031	1e-05	0	0	0	0
40.2	0	0	0	0	0	0	0.00022	0.01175	0.09337	0.2762	0.35454	0.20128	0.05497	0.00716	0.00049	2e-05	0	0	0	0
40.25	0	0	0	0	0	0	0.00019	0.01114	0.09186	0.27431	0.3536	0.2049	0.05604	0.00759	0.00036	1e-05	0	0	0	0
40.3	0	0	0	0	0	0	0.00022	0.01117	0.08977	0.26995	0.3543	0.20842	0.05783	0.00788	0.00045	1e-05	0	0	0	0
40.35	0	0	0	0	0	0	0.00027	0.01096	0.08792	0.26937	0.35462	0.21021	0.05811	0.00809	0.00044	1e-05	0	0	0	0
40.4	0	0	0	0	0	0	0.00022	0.01032	0.08715	0.26902	0.35397	0.21098	0.05983	0.00797	0.00052	2e-05	0	0	0	0
40.45	0	0	0	0	0	0	0.00023	0.01017	0.08437	0.26209	0.35592	0.21601	0.06205	0.00869	0.00046	1e-05	0	0	0	0
40.5	0	0	0	0	0	0	0.00019	0.01024	0.0832	0.26327	0.35453	0.21824	0.06134	0.00844	0.00054	1e-05	0	0	0	0
40.55	0	0	0	0	0	1e-05	0.00015	0.00939	0.08036	0.25888	0.35612	0.21962	0.06535	0.00938	0.00074	0	0	0	0	0
40.6	0	0	0	0	0	0	0.00024	0.00858	0.08108	0.25463	0.35454	0.22452	0.06614	0.00969	0.00056	2e-05	0	0	0	0
40.65	0	0	0	0	0	0	0.00024	0.0087	0.07876	0.25141	0.35614	0.22726	0.06794	0.00891	0.00062	2e-05	0	0	0	0
40.7	0	0	0	0	0	0	0.00021	0.00832	0.07695	0.25159	0.35614	0.22723	0.06904	0.00985	0.00066	1e-05	0	0	0	0
40.75	0	0	0	0	0	0	0.00017	0.00851	0.07627	0.24904	0.35514	0.22872	0.07151	0.00997	0.00066	1e-05	0	0	0	0
40.8	0	0	0	0	0	0	0.00014	0.008	0.07342	0.2447	0.35726	0.23291	0.07167	0.01109	0.0008	1e-05	0	0	0	0
40.85	0	0	0	0	0	0	0.00016	0.00771	0.07086	0.24467	0.35733	0.2347	0.07276	0.01095	0.00083	3e-05	0	0	0	0
40.9	0	0	0	0	0	0	0.00018	0.00723	0.06967	0.24209	0.35396	0.24106	0.07382	0.0112	0.00075	4e-05	0	0	0	0
40.95	0	0	0	0	0	0	0.00015	0.00695	0.06932	0.2375	0.35567	0.23941	0.07814	0.01209	0.00077	0	0	0	0	0
41	0	0	0	0	0	0	0.00011	0.00706	0.06775	0.23592	0.35259	0.24446	0.07894	0.01211	0.00104	1e-05	1e-05	0	0	0
41.05	0	0	0	0	0	0	8e-05	0.00686	0.06549	0.23217	0.35657	0.24482	0.08048	0.01264	0.00081	8e-05	0	0	0	0
41.1	0	0	0	0	0	0	0.00013	0.00613	0.06434	0.23083	0.35449	0.24753	0.08207	0.01336	0.00111	1e-05	0	0	0	0
41.15	0	0	0	0	0	0	9e-05	0.00637	0.06249	0.22841	0.35455	0.25043	0.08347	0.01305	0.00113	1e-05	0	0	0	0
41.2	0	0	0	0	0	0	9e-05	0.00612	0.06208	0.22675	0.35199	0.25153	0.08561	0.01464	0.00112	7e-05	0	0	0	0
41.25	0	0	0	0	0	0	8e-05	0.00581	0.06186	0.22175	0.35321	0.25213	0.08922	0.01468	0.0012	6e-05	0	0	0	0
41.3	0	0	0	0	0	0	0.0001	0.00556	0.05941	0.22165	0.35199	0.25683	0.08832	0.01485	0.00122	7e-05	0	0	0	0
41.35	0	0	0	0	0	0	0.00011	0.00581	0.05756	0.216	0.35241	0.26048	0.09023	0.01619	0.00109	0.00012	0	0	0	0
41.4	0	0	0	0	0	0	9e-05	0.00562	0.05745	0.21299	0.35242	0.26158	0.09278	0.01569	0.00129	9e-05	0	0	0	0
41.45	0	0	0	0	0	0	8e-05	0.00552	0.05573	0.21075	0.34636	0.26793	0.09626	0.01601	0.00131	5e-05	0	0	0	0
41.5	0	0	0	0	0	0	0.0001	0.0045	0.05442	0.21019	0.35034	0.26576	0.09629	0.01687	0.00149	4e-05	0	0	0	0
41.55	0	0	0	0	0	0	7e-05	0.00455	0.0537	0.20525	0.34929	0.26946	0.09871	0.0175	0.00146	1e-05	0	0	0	0
41.6	0	0	0	0	0	0	0.0001	0.00465	0.05173	0.20411	0.35077	0.26932	0.099	0.01845	0.00182	5e-05	0	0	0	0
41.65	0	0	0	0	0	0	5e-05	0.00475	0.0508	0.20102	0.34793	0.27395	0.10149	0.0182	0.00177	4e-05	0	0	0	0
41.7	0	0	0	0	0	0	3e-05	0.00442	0.04972	0.19775	0.34914	0.27356	0.10477	0.01884	0.00169	8e-05	0	0	0	0
41.75	0	0	0	0	0	0	6e-05	0.00432	0.04786	0.19588	0.34399	0.27957	0.10644	0.02	0.00179	9e-05	0	0	0	0
41.8	0	0	0	0	0	0	4e-05	0.00391	0.04682	0.19398	0.34452	0.28075	0.10846	0.01979	0.00164	9e-05	0	0	0	0
41.85	0	0	0	0	0	0	8e-05	0.00381	0.04614	0.19186	0.34385	0.28104	0.11016	0.02099	0.00194	0.00013	0	0	0	0
41.9	0	0	0	0	0	0	4e-05	0.00346	0.04606	0.19056	0.33957	0.28559	0.11188	0.02071	0.00199	0.00014	0	0	0	0
41.95	0	0	0	0	0	0	8e-05	0.00331	0.04448	0.18397	0.3413	0.28898	0.1139	0.02169	0.00222	7e-05	0	0	0	0
42	0	0	0	0	0	0	3e-05	0.00322	0.04184	0.18457	0.33736	0.29204	0.11574	0.023	0.00208	0.00012	0	0	0	0
42.05	0	0	0	0	0	0	6e-05	0.00334	0.04256	0.18269	0.33866	0.28909	0.11775	0.02352	0.00228	5e-05	0	0	0	0
42.1	0	0	0	0	0	0	1e-05	0.00315	0.04141	0.18111	0.33748	0.28899	0.1212	0.02406	0.00237	0.00022	0	0	0	0
42.15	0	0	0	0	0	0	5e-05	0.00299	0.0395	0.17636	0.33656	0.29464	0.12143	0.02609	0.00227	0.00011	0	0	0	0
42.2	0	0	0	0	0	0	3e-05	0.00305	0.0398	0.17417	0.33505	0.29473	0.12447	0.02583	0.00269	0.00018	0	0	0	0
42.25	0	0	0	0	0	0	2e-05	0.00302	0.03732	0.17571	0.33313	0.29421	0.12764	0.02603	0.00281	0.00011	0	0	0	0
42.3	0	0	0	0	0	0	0.0001	0.0024	0.03754	0.16952	0.3295	0.302	0.1286	0.02733	0.00289	0.00012	0	0	0	0
42.35	0	0	0	0	0	0	0	0.00264	0.03707	0.16604	0.32973	0.30348	0.12987	0.02834	0.0027	0.00013	0	0	0	0
42.4	0	0	0	0	0	0	4e-05	0.00239	0.03522	0.16522	0.32932	0.30284	0.13302	0.02862	0.00322	0.00011	0	0	0	0
42.45	0	0	0	0	0	0	4e-05	0.00242	0.03432	0.16272	0.32765	0.30452	0.13604	0.02883	0.00326	0.0002	0	0	0	0
42.5	0	0	0	0	0	0	1e-05	0.00223	0.03379	0.15971	0.32651	0.30604	0.13746	0.03043	0.00355	0.00027	0	0	0	0
42.55	0	0	0	0	0	0	1e-05	0.00219	0.03349	0.15913	0.32474	0.30758	0.13824	0.03117	0.0033	0.00015	0	0	0	0
42.6	0	0	0	0	0	0	1e-05	0.00192	0.03127	0.15527	0.32245	0.31084	0.14264	0.03144	0.00399	0.00017	0	0	0	0
42.65	0	0	0	0	0	0	1e-05	0.0021	0.03104	0.15298	0.32224	0.31188	0.14347	0.03274	0.00338	0.00016	0	0	0	0
42.7	0	0	0	0	0	0	4e-05	0.00206	0.02977	0.15065	0.32009	0.31328	0.14667	0.03383	0.00339	0.0002	2e-05	0	0	0
42.75	0	0	0	0	0	0	2e-05	0.00166	0.02944	0.14874	0.31738	0.31454	0.14885	0.03523	0.00387	0.00025	2e-05	0	0	0
42.8	0	0	0	0	0	0	4e-05	0.00188	0.02864	0.14527	0.31565	0.31717	0.15153	0.03555	0.004	0.00025	2e-05	0	0	0
42.85	0	0	0	0	0	0	1e-05	0.00176	0.02851	0.14464	0.31655	0.31652	0.15018	0.03683	0.0047	0.00029	1e-05	0	0	0
42.9	0	0	0	0	0	0	3e-05	0.00164	0.02722	0.14192	0.31187	0.31954	0.15553	0.0374	0.0045	0.00034	1e-05	0	0	0
42.95	0	0	0	0	0	0	0	0.00159	0.02653	0.1402	0.30944	0.32104	0.15838	0.03778	0.00477	0.00027	0	0	0	0
43	0	0	0	0	0	0	1e-05	0.00167	0.02596	0.13894	0.30828	0.32377	0.15706	0.03904	0.00494	0.00032	1e-05	0	0	0
43.05	0	0	0	0	0	0	3e-05	0.00141	0.02601	0.13289	0.30909	0.32301	0.16067	0.0407	0.00585	0.00033	1e-05	0	0	0
43.1	0	0	0	0	0	0	1e-05	0.0012	0.02501	0.13325	0.30543	0.32303	0.16335	0.04308	0.00534	0.0003	0	0	0	0
43.15	0	0	0	0	0	0	0	0.00145	0.02367	0.12974	0.30627	0.32394	0.16666	0.04262	0.00536	0.00029	0	0	0	0
43.2	0	0	0	0	0	0	1e-05	0.00139	0.02298	0.12886	0.3003	0.32827	0.16864	0.04346	0.00566	0.00042	1e-05	0	0	0
43.25	0	0	0	0	0	0	2e-05	0.00112	0.02206	0.12726	0.29777	0.32851	0.17162	0.04547	0.0057	0.00047	0	0	0	0
43.3	0	0	0	0	0	0	1e-05	0.00132	0.02276	0.12345	0.29811	0.32971	0.17273	0.04579	0.00574	0.00038	0	0	0	0
43.35	0	0	0	0	0	0	0	0.00122	0.02192	0.12348	0.29357	0.32832	0.17743	0.04726	0.00637	0.00042	1e-05	0	0	0
43.4	0	0	0	0	0	0	2e-05	0.00106	0.02045	0.12018	0.29543	0.33075	0.17773	0.04729	0.0066	0.00047	2e-05	0	0	0
43.45	0	0	0	0	0	0	2e-05	0.00113	0.02015	0.11954	0.29089	0.33216	0.17996	0.04912	0.0066	0.00042	1e-05	0	0	0
43.5	0	0	0	0	0	0	2e-05	0.00098	0.01992	0.11679	0.29036	0.3301	0.18383	0.05069	0.00677	0.0005	4e-05	0	0	0
43.55	0	0	0	0	0	0	1e-05	0.00092	0.01949	0.1137	0.28597	0.3323	0.18764	0.05202	0.00742	0.00051	2e-05	0	0	0
43.6	0	0	0	0	0	0	0	0.00079	0.01928	0.11284	0.28583	0.334	0.18643	0.05268	0.00767	0.00048	0	0	0	0
43.65	0	0	0	0	0	0	1e-05	0.00103	0.01841	0.1101	0.28144	0.33376	0.19288	0.05416	0.00752	0.00068	1e-05	0	0	0
43.7	0	0	0	0	0	0	2e-05	0.00091	0.01799	0.1101	0.28175	0.33425	0.19153	0.05501	0.0078	0.00063	1e-05	0	0	0
43.75	0	0	0	0	0	0	1e-05	0.0008	0.01785	0.10563	0.27768	0.33647	0.19717	0.05658	0.00732	0.00048	1e-05	0	0	0
43.8	0	0	0	0	0	0	0	0.00084	0.01666	0.10512	0.27669	0.3387	0.1967	0.05623	0.0084	0.00063	3e-05	0	0	0
43.85	0	0	0	0	0	0	2e-05	0.00068	0.01673	0.10316	0.27404	0.33842	0.19766	0.0596	0.00909	0.0006	0	0	0	0
43.9	0	0	0	0	0	0	1e-05	0.00074	0.0161	0.10238	0.27158	0.33578	0.2024	0.06066	0.00966	0.00066	3e-05	0	0	0
43.95	0	0	0	0	0	0	0	0.00072	0.01523	0.09925	0.2698	0.33853	0.20537	0.06115	0.00935	0.00059	1e-05	0	0	0
44	0	0	0	0	0	0	0	0.00062	0.01548	0.09757	0.2653	0.339	0.20783	0.06357	0.00989	0.00073	1e-05	0	0	0
44.05	0	0	0	0	0	0	0	0.00062	0.01511	0.0961	0.26491	0.3416	0.20685	0.06413	0.0098	0.00084	4e-05	0	0	0
44.1	0	0	0	0	0	0	0	0.00059	0.01439	0.09581	0.26302	0.33923	0.20946	0.06621	0.01053	0.00076	0	0	0	0
44.15	0	0	0	0	0	0	0	0.00054	0.01344	0.09487	0.26132	0.33972	0.21288	0.06567	0.01057	0.00096	3e-05	0	0	0
44.2	0	0	0	0	0	0	0	0.00054	0.01297	0.09072	0.25704	0.34022	0.21798	0.06822	0.01145	0.00082	4e-05	0	0	0
44.25	0	0	0	0	0	0	0	0.00053	0.01286	0.09059	0.25297	0.34078	0.21956	0.07014	0.01167	0.00085	4e-05	1e-05	0	0
44.3	0	0	0	0	0	0	0	0.00045	0.01257	0.08786	0.2516	0.33956	0.22334	0.07133	0.01225	0.00098	6e-05	0	0	0
44.35	0	0	0	0	0	0	0	0.00042	0.01218	0.08678	0.2494	0.33913	0.22401	0.07476	0.01227	0.00099	5e-05	1e-05	0	0
44.4	0	0	0	0	0	0	0	0.00045	0.01195	0.08548	0.2447	0.34265	0.22809	0.07286	0.01268	0.00111	3e-05	0	0	0
44.45	0	0	0	0	0	0	0	0.00049	0.01192	0.08291	0.24513	0.34135	0.22656	0.07759	0.01288	0.00111	6e-05	0	0	0
44.5	0	0	0	0	0	0	0	0.00036	0.01109	0.08277	0.24307	0.34101	0.22965	0.07784	0.013	0.00121	0	0	0	0
44.55	0	0	0	0	0	0	0	0.00057	0.01109	0.07937	0.2424	0.33972	0.23114	0.08047	0.01388	0.00131	5e-05	0	0	0
44.6	0	0	0	0	0	0	0	0.00041	0.01074	0.07743	0.2395	0.34055	0.2331	0.08197	0.01483	0.00138	9e-05	0	0	0
44.65	0	0	0	0	0	0	0	0.00029	0.01027	0.07797	0.23421	0.33757	0.23935	0.08439	0.01466	0.00121	7e-05	1e-05	0	0
44.7	0	0	0	0	0	0	0	0.00032	0.01003	0.07689	0.23687	0.33652	0.23881	0.08407	0.01504	0.00143	2e-05	0	0	0
44.75	0	0	0	0	0	0	0	0.00022	0.00882	0.07482	0.23517	0.33742	0.23897	0.08686	0.01607	0.00155	0.0001	0	0	0
44.8	0	0	0	0	0	0	0	0.00031	0.00923	0.07159	0.22635	0.34319	0.24364	0.08795	0.01621	0.00148	5e-05	0	0	0
44.85	0	0	0	0	0	0	0	0.00037	0.0089	0.07021	0.22801	0.33692	0.24772	0.09019	0.01612	0.00148	7e-05	1e-05	0	0
44.9	0	0	0	0	0	0	0	0.00019	0.00881	0.06958	0.22432	0.33898	0.24892	0.09042	0.01696	0.00173	9e-05	0	0	0
44.95	0	0	0	0	0	0	0	0.00024	0.00847	0.06891	0.2209	0.33751	0.25019	0.0945	0.01743	0.00181	4e-05	0	0	0
45	0	0	0	0	0	0	0	0.00026	0.00826	0.06748	0.21941	0.33482	0.25467	0.09439	0.01889	0.00171	0.00011	0	0	0
45.05	0	0	0	0	0	0	1e-05	0.00023	0.00778	0.06448	0.21796	0.33737	0.25545	0.09614	0.01862	0.00185	0.00011	0	0	0
45.1	0	0	0	0	0	0	1e-05	0.00029	0.00729	0.06284	0.21694	0.33492	0.25681	0.09925	0.01953	0.00206	6e-05	0	0	0
45.15	0	0	0	0	0	0	0	0.00019	0.00724	0.06248	0.21212	0.33671	0.25809	0.10159	0.01938	0.00207	0.00013	0	0	0
45.2	0	0	0	0	0	0	0	0.00022	0.00755	0.06144	0.20911	0.33664	0.26243	0.10002	0.02036	0.00203	0.00019	1e-05	0	0
45.25	0	0	0	0	0	0	0	0.00015	0.00738	0.06016	0.20851	0.33552	0.26068	0.10364	0.02167	0.00214	0.00015	0	0	0
45.3	0	0	0	0	0	0	0	0.0002	0.00663	0.06005	0.20494	0.33323	0.26644	0.10446	0.02148	0.00245	0.00012	0	0	0
45.35	0	0	0	0	0	0	0	0.00021	0.00628	0.05673	0.20558	0.33282	0.26603	0.1077	0.02221	0.00234	9e-05	1e-05	0	0
45.4	0	0	0	0	0	0	0	0.00022	0.00675	0.05596	0.19987	0.33204	0.26949	0.10873	0.02383	0.00299	0.0001	2e-05	0	0
45.45	0	0	0	0	0	0	0	0.00015	0.00631	0.05553	0.19829	0.33277	0.26923	0.11152	0.02352	0.00255	0.00013	0	0	0
45.5	0	0	0	0	0	0	0	0.00019	0.00578	0.05394	0.19604	0.32941	0.274	0.11326	0.02451	0.00271	0.00015	1e-05	0	0
45.55	0	0	0	0	0	0	0	0.00019	0.00564	0.05434	0.19475	0.32817	0.27488	0.1151	0.024	0.00281	0.00012	0	0	0
45.6	0	0	0	0	0	0	0	0.00012	0.0055	0.05262	0.19089	0.32782	0.27763	0.11698	0.0254	0.00284	0.0002	0	0	0
45.65	0	0	0	0	0	0	0	0.00018	0.0055	0.05127	0.19187	0.32445	0.27821	0.11966	0.02554	0.00317	0.00015	0	0	0
45.7	0	0	0	0	0	0	0	0.00011	0.00484	0.04916	0.18776	0.32834	0.27965	0.12008	0.02657	0.00334	0.00014	1e-05	0	0
45.75	0	0	0	0	0	0	0	0.00016	0.00503	0.0495	0.18335	0.32536	0.28249	0.12339	0.02736	0.00317	0.00018	1e-05	0	0
45.8	0	0	0	0	0	0	0	0.00012	0.00521	0.04757	0.1838	0.32475	0.28294	0.12444	0.02779	0.00312	0.00025	1e-05	0	0
45.85	0	0	0	0	0	0	0	0.00013	0.0047	0.04753	0.18078	0.32417	0.28444	0.12627	0.02841	0.00328	0.00028	1e-05	0	0
45.9	0	0	0	0	0	0	0	5e-05	0.00459	0.04534	0.17742	0.32392	0.28465	0.1304	0.03026	0.00323	0.00014	0	0	0
45.95	0	0	0	0	0	0	0	6e-05	0.00438	0.04363	0.17735	0.31885	0.28779	0.13273	0.03122	0.00369	0.0003	0	0	0
46	0	0	0	0	0	0	0	3e-05	0.00372	0.04352	0.17405	0.32113	0.28867	0.13196	0.03263	0.00399	0.0003	0	0	0
46.05	0	0	0	0	0	0	0	0.0001	0.00389	0.04239	0.17097	0.31852	0.29325	0.13296	0.03339	0.00426	0.00027	0	0	0
46.1	0	0	0	0	0	0	0	0.00014	0.00413	0.04244	0.16754	0.31804	0.29247	0.13714	0.03317	0.00464	0.00029	0	0	0
46.15	0	0	0	0	0	0	0	7e-05	0.00386	0.04126	0.16649	0.31935	0.29155	0.13913	0.03359	0.00435	0.00035	0	0	0
46.2	0	0	0	0	0	0	0	4e-05	0.00347	0.03951	0.16523	0.31242	0.29843	0.14199	0.03395	0.00466	0.00028	2e-05	0	0
46.25	0	0	0	0	0	0	0	9e-05	0.00364	0.03895	0.16181	0.314	0.29842	0.14182	0.03627	0.00479	0.00019	2e-05	0	0
46.3	0	0	0	0	0	0	0	9e-05	0.00328	0.03801	0.1581	0.31108	0.30106	0.14497	0.03812	0.00499	0.00029	1e-05	0	0
46.35	0	0	0	0	0	0	0	8e-05	0.00322	0.03637	0.15785	0.31133	0.30009	0.14767	0.03781	0.00521	0.00034	3e-05	0	0
46.4	0	0	0	0	0	0	0	5e-05	0.00328	0.03615	0.15621	0.30942	0.30217	0.1498	0.03764	0.0049	0.00038	0	0	0
46.45	0	0	0	0	0	0	0	5e-05	0.00301	0.03572	0.15249	0.31103	0.30393	0.14918	0.0386	0.00558	0.00038	2e-05	1e-05	0
46.5	0	0	0	0	0	0	0	4e-05	0.00309	0.03488	0.15223	0.3058	0.30563	0.15296	0.03925	0.0058	0.00031	1e-05	0	0
46.55	0	0	0	0	0	0	0	6e-05	0.00277	0.03424	0.14912	0.30368	0.30724	0.15652	0.03996	0.00599	0.00042	0	0	0
46.6	0	0	0	0	0	0	0	8e-05	0.0029	0.03312	0.14881	0.30101	0.30998	0.15651	0.04151	0.00563	0.00044	1e-05	0	0
46.65	0	0	0	0	0	0	0	3e-05	0.00287	0.03144	0.1452	0.2972	0.31199	0.1602	0.04409	0.00641	0.00056	1e-05	0	0
46.7	0	0	0	0	0	0	0	6e-05	0.00265	0.03153	0.14376	0.29868	0.31002	0.16311	0.04394	0.00577	0.00048	0	0	0
46.75	0	0	0	0	0	0	0	3e-05	0.00225	0.02991	0.14441	0.29663	0.31256	0.16282	0.04412	0.00673	0.00052	2e-05	0	0
46.8	0	0	0	0	0	0	0	5e-05	0.00207	0.02964	0.13991	0.29491	0.31257	0.16624	0.047	0.00708	0.0005	3e-05	0	0
46.85	0	0	0	0	0	0	0	4e-05	0.00227	0.02905	0.13711	0.29405	0.31313	0.168	0.04861	0.00714	0.00053	7e-05	0	0
46.9	0	0	0	0	0	0	0	2e-05	0.00239	0.02857	0.13392	0.29303	0.3146	0.17257	0.04735	0.007	0.00051	4e-05	0	0
46.95	0	0	0	0	0	0	0	5e-05	0.00222	0.02731	0.13268	0.29197	0.31476	0.17347	0.04949	0.00753	0.00052	0	0	0
47	0	0	0	0	0	0	0	5e-05	0.00201	0.0275	0.13149	0.28901	0.31584	0.17431	0.0512	0.00775	0.00082	2e-05	0	0
47.05	0	0	0	0	0	0	1e-05	2e-05	0.00203	0.0267	0.12832	0.28709	0.31692	0.17744	0.05271	0.0081	0.00064	2e-05	0	0
47.1	0	0	0	0	0	0	0	3e-05	0.00202	0.02574	0.12661	0.28462	0.31797	0.17977	0.05416	0.00836	0.00071	1e-05	0	0
47.15	0	0	0	0	0	0	0	3e-05	0.00188	0.02509	0.12417	0.28338	0.31814	0.18307	0.05446	0.00882	0.00093	3e-05	0	0
47.2	0	0	0	0	0	0	0	3e-05	0.00185	0.02461	0.12331	0.28148	0.31655	0.18736	0.05509	0.00891	0.0008	1e-05	0	0
47.25	0	0	0	0	0	0	0	2e-05	0.00166	0.02419	0.12004	0.27976	0.31992	0.18775	0.05672	0.00914	0.00077	3e-05	0	0
47.3	0	0	0	0	0	0	0	1e-05	0.00153	0.02286	0.11879	0.27784	0.32294	0.18847	0.05683	0.00982	0.00089	2e-05	0	0
47.35	0	0	0	0	0	0	0	1e-05	0.00168	0.02213	0.11967	0.27565	0.31991	0.18997	0.05989	0.01027	0.00077	5e-05	0	0
47.4	0	0	0	0	0	0	0	0	0.00155	0.02186	0.1148	0.27547	0.32456	0.19162	0.0592	0.00997	0.00095	2e-05	0	0
47.45	0	0	0	0	0	0	1e-05	1e-05	0.00142	0.02122	0.11394	0.27048	0.32369	0.19718	0.06123	0.00979	0.00101	2e-05	0	0
47.5	0	0	0	0	0	0	0	3e-05	0.00138	0.02048	0.11281	0.26717	0.32405	0.19831	0.06402	0.01066	0.00109	0	0	0
47.55	0	0	0	0	0	0	0	3e-05	0.00102	0.02081	0.1097	0.26852	0.32217	0.20094	0.06478	0.01116	0.00087	0	0	0
47.6	0	0	0	0	0	0	0	1e-05	0.00127	0.02026	0.10888	0.26678	0.32464	0.19797	0.06746	0.01152	0.00116	5e-05	0	0
47.65	0	0	0	0	0	0	0	2e-05	0.00118	0.01941	0.10743	0.26324	0.32368	0.20383	0.0682	0.01206	0.00084	0.00011	0	0
47.7	0	0	0	0	0	0	0	1e-05	0.00122	0.01831	0.10392	0.26202	0.32532	0.20711	0.06863	0.01222	0.00121	3e-05	0	0
47.75	0	0	0	0	0	0	0	0	0.00119	0.01824	0.10283	0.25957	0.32698	0.20656	0.07059	0.01272	0.00128	4e-05	0	0
47.8	0	0	0	0	0	0	0	3e-05	0.00117	0.01738	0.10128	0.25783	0.32701	0.21134	0.07007	0.01258	0.00124	7e-05	0	0
47.85	0	0	0	0	0	0	0	0	0.00101	0.0179	0.09993	0.25671	0.326	0.2125	0.07152	0.01318	0.00117	8e-05	0	0
47.9	0	0	0	0	0	0	0	0	0.00124	0.01808	0.09738	0.25189	0.32675	0.21491	0.07424	0.01391	0.00154	6e-05	0	0
47.95	0	0	0	0	0	0	0	1e-05	0.00106	0.01673	0.09669	0.25093	0.32636	0.21723	0.0758	0.01379	0.00134	6e-05	0	0
48	0	0	0	0	0	0	0	0	0.0009	0.01567	0.09502	0.24797	0.32861	0.21897	0.07615	0.01514	0.00152	4e-05	1e-05	0
48.05	0	0	0	0	0	0	0	5e-05	0.00082	0.01636	0.09193	0.25008	0.32665	0.21939	0.07804	0.01489	0.00171	8e-05	0	0
48.1	0	0	0	0	0	0	0	1e-05	0.00084	0.01561	0.0919	0.24534	0.32677	0.22329	0.07852	0.01572	0.00187	0.00013	0	0
48.15	0	0	0	0	0	0	0	1e-05	0.00085	0.01477	0.08807	0.24505	0.32778	0.22412	0.08181	0.01592	0.00154	7e-05	1e-05	0
48.2	0	0	0	0	0	0	0	0	0.00072	0.0137	0.08948	0.23928	0.32679	0.22982	0.08181	0.01656	0.00172	0.00012	0	0
48.25	0	0	0	0	0	0	0	1e-05	0.00075	0.01452	0.0863	0.23683	0.32819	0.22915	0.08578	0.01671	0.00168	8e-05	0	0
48.3	0	0	0	0	0	0	0	4e-05	0.00084	0.01365	0.08496	0.23718	0.32674	0.23152	0.08672	0.01657	0.00165	0.00013	0	0
48.35	0	0	0	0	0	0	0	0	0.00052	0.01333	0.08417	0.23554	0.32726	0.23219	0.08799	0.01737	0.00155	8e-05	0	0
48.4	0	0	0	0	0	0	0	2e-05	0.00056	0.01366	0.08053	0.23378	0.32531	0.23467	0.09116	0.01817	0.00201	0.00013	0	0
48.45	0	0	0	0	0	0	0	1e-05	0.0007	0.01242	0.08229	0.2283	0.32898	0.23656	0.09034	0.01838	0.00189	0.00013	0	0
48.5	0	0	0	0	0	0	0	0	0.00057	0.01243	0.07883	0.22603	0.32618	0.2411	0.09333	0.01934	0.00209	0.0001	0	0
48.55	0	0	0	0	0	0	0	0	0.00056	0.01205	0.07828	0.22511	0.32536	0.24174	0.09491	0.01972	0.00214	0.00013	0	0
48.6	0	0	0	0	0	0	0	1e-05	0.00048	0.01146	0.07566	0.22303	0.32384	0.24593	0.09671	0.02035	0.00242	9e-05	2e-05	0
48.65	0	0	0	0	0	0	0	0	0.00056	0.0108	0.0733	0.22135	0.32632	0.24568	0.09806	0.02132	0.00242	0.00019	0	0
48.7	0	0	0	0	0	0	0	0	0.00058	0.01069	0.0738	0.21911	0.32502	0.24761	0.09922	0.02102	0.00283	0.00012	0	0
48.75	0	0	0	0	0	0	0	0	0.00053	0.01064	0.0718	0.21477	0.3264	0.24978	0.10164	0.02182	0.00241	0.0002	1e-05	0
48.8	0	0	0	0	0	0	0	2e-05	0.00054	0.01056	0.07006	0.21503	0.32489	0.25137	0.10202	0.02249	0.00281	0.0002	1e-05	0
48.85	0	0	0	0	0	0	0	0	0.00043	0.0098	0.06869	0.21348	0.32415	0.2517	0.10503	0.02366	0.00281	0.00025	0	0
48.9	0	0	0	0	0	0	0	0	0.00048	0.01005	0.06757	0.21097	0.32215	0.2553	0.10628	0.02388	0.00311	0.0002	1e-05	0
48.95	0	0	0	0	0	0	0	0	0.00039	0.00896	0.06567	0.20763	0.32583	0.25667	0.10696	0.0244	0.00332	0.00016	1e-05	0
49	0	0	0	0	0	0	0	1e-05	0.00038	0.00937	0.06384	0.20527	0.32101	0.26	0.11057	0.02594	0.00343	0.00018	0	0
49.05	0	0	0	0	0	0	0	0	0.00046	0.00942	0.06484	0.20663	0.31887	0.25981	0.11084	0.02575	0.00315	0.00023	0	0
49.1	0	0	0	0	0	0	0	0	0.00039	0.00876	0.06306	0.19986	0.31843	0.26572	0.11248	0.02759	0.00341	0.0003	0	0
49.15	0	0	0	0	0	0	0	0	0.0003	0.00818	0.06088	0.20041	0.32071	0.2632	0.11569	0.02711	0.00327	0.00025	0	0
49.2	0	0	0	0	0	0	0	2e-05	0.00024	0.00821	0.06059	0.19757	0.31891	0.2672	0.11606	0.02747	0.00345	0.00026	2e-05	0
49.25	0	0	0	0	0	0	0	0	0.00036	0.00786	0.05849	0.19542	0.31796	0.26919	0.11754	0.02874	0.00417	0.00026	1e-05	0
49.3	0	0	0	0	0	0	0	0	0.00029	0.00774	0.05754	0.19498	0.31568	0.27004	0.12044	0.02889	0.00401	0.00038	1e-05	0
49.35	0	0	0	0	0	0	0	0	0.00022	0.00765	0.05769	0.19093	0.31547	0.27003	0.12393	0.02967	0.00416	0.00024	1e-05	0
49.4	0	0	0	0	0	0	0	0	0.00027	0.00723	0.05557	0.18824	0.3173	0.27252	0.12395	0.03015	0.00444	0.00032	1e-05	0
49.45	0	0	0	0	0	0	0	0	0.00023	0.00702	0.05433	0.18569	0.31418	0.27514	0.12693	0.03212	0.00395	0.00039	2e-05	0
49.5	0	0	0	0	0	0	0	0	0.00017	0.00699	0.05356	0.18326	0.313	0.27548	0.12961	0.03314	0.00447	0.00032	0	0
49.55	0	0	0	0	0	0	0	0	0.00023	0.00676	0.05251	0.18189	0.3113	0.27792	0.13102	0.03319	0.00479	0.00037	2e-05	0
49.6	0	0	0	0	0	0	0	0	0.00016	0.00633	0.05059	0.17981	0.3087	0.28157	0.13398	0.03358	0.00493	0.00035	0	0
49.65	0	0	0	0	0	0	0	1e-05	0.00022	0.0064	0.05036	0.17774	0.30944	0.28081	0.13512	0.03479	0.00457	0.0005	4e-05	0
49.7	0	0	0	0	0	0	0	0	0.00025	0.00543	0.05048	0.17542	0.30919	0.2804	0.13694	0.03641	0.00514	0.00032	2e-05	0
49.75	0	0	0	0	0	0	0	0	0.00019	0.00606	0.04755	0.17313	0.30933	0.28222	0.13866	0.0368	0.00561	0.00043	2e-05	0
49.8	0	0	0	0	0	0	0	0	0.00019	0.0055	0.0454	0.17356	0.30793	0.28487	0.13914	0.03747	0.00541	0.00051	2e-05	0
49.85	0	0	0	0	0	0	0	0	0.0002	0.00565	0.04607	0.16833	0.30501	0.28715	0.14268	0.03914	0.00537	0.00039	1e-05	0
49.9	0	0	0	0	0	0	0	0	0.00017	0.00531	0.04484	0.16688	0.30565	0.28863	0.14302	0.03877	0.00611	0.00061	1e-05	0
49.95	0	0	0	0	0	0	0	0	0.00021	0.0052	0.04545	0.16726	0.30047	0.28945	0.14528	0.04023	0.00601	0.00042	2e-05	0
50	0	0	0	0	0	0	0	0	0.00013	0.00515	0.04344	0.16359	0.30299	0.2895	0.14708	0.04121	0.00649	0.00042	0	0
