1.1	0	0	0	0	0	0	0	0	0	0	0	0	0	0	0	0	0	0	0	0
1.15	1	0	0	0	0	0	0	0	0	0	0	0	0	0	0	0	0	0	0	0
1.2	1	0	0	0	0	0	0	0	0	0	0	0	0	0	0	0	0	0	0	0
1.25	1	0	0	0	0	0	0	0	0	0	0	0	0	0	0	0	0	0	0	0
1.3	1	0	0	0	0	0	0	0	0	0	0	0	0	0	0	0	0	0	0	0
1.35	1	0	0	0	0	0	0	0	0	0	0	0	0	0	0	0	0	0	0	0
1.4	1	0	0	0	0	0	0	0	0	0	0	0	0	0	0	0	0	0	0	0
1.45	1	0	0	0	0	0	0	0	0	0	0	0	0	0	0	0	0	0	0	0
1.5	1	0	0	0	0	0	0	0	0	0	0	0	0	0	0	0	0	0	0	0
1.55	1	0	0	0	0	0	0	0	0	0	0	0	0	0	0	0	0	0	0	0
1.6	1	0	0	0	0	0	0	0	0	0	0	0	0	0	0	0	0	0	0	0
1.65	1	0	0	0	0	0	0	0	0	0	0	0	0	0	0	0	0	0	0	0
1.7	1	0	0	0	0	0	0	0	0	0	0	0	0	0	0	0	0	0	0	0
1.75	1	0	0	0	0	0	0	0	0	0	0	0	0	0	0	0	0	0	0	0
1.8	1	0	0	0	0	0	0	0	0	0	0	0	0	0	0	0	0	0	0	0
1.85	1	0	0	0	0	0	0	0	0	0	0	0	0	0	0	0	0	0	0	0
1.9	1	0	0	0	0	0	0	0	0	0	0	0	0	0	0	0	0	0	0	0
1.95	1	0	0	0	0	0	0	0	0	0	0	0	0	0	0	0	0	0	0	0
2	1	0	0	0	0	0	0	0	0	0	0	0	0	0	0	0	0	0	0	0
2.05	1	0	0	0	0	0	0	0	0	0	0	0	0	0	0	0	0	0	0	0
2.1	1	0	0	0	0	0	0	0	0	0	0	0	0	0	0	0	0	0	0	0
2.15	1	0	0	0	0	0	0	0	0	0	0	0	0	0	0	0	0	0	0	0
2.2	1	0	0	0	0	0	0	0	0	0	0	0	0	0	0	0	0	0	0	0
2.25	1	0	0	0	0	0	0	0	0	0	0	0	0	0	0	0	0	0	0	0
2.3	1	0	0	0	0	0	0	0	0	0	0	0	0	0	0	0	0	0	0	0
2.35	1	0	0	0	0	0	0	0	0	0	0	0	0	0	0	0	0	0	0	0
2.4	0.99996	4e-05	0	0	0	0	0	0	0	0	0	0	0	0	0	0	0	0	0	0
2.45	0.99992	8e-05	0	0	0	0	0	0	0	0	0	0	0	0	0	0	0	0	0	0
2.5	0.99989	0.00011	0	0	0	0	0	0	0	0	0	0	0	0	0	0	0	0	0	0
2.55	0.99978	0.00022	0	0	0	0	0	0	0	0	0	0	0	0	0	0	0	0	0	0
2.6	0.99946	0.00054	0	0	0	0	0	0	0	0	0	0	0	0	0	0	0	0	0	0
2.65	0.99904	0.00096	0	0	0	0	0	0	0	0	0	0	0	0	0	0	0	0	0	0
2.7	0.9989	0.0011	0	0	0	0	0	0	0	0	0	0	0	0	0	0	0	0	0	0
2.75	0.99802	0.00198	0	0	0	0	0	0	0	0	0	0	0	0	0	0	0	0	0	0
2.8	0.99721	0.00279	0	0	0	0	0	0	0	0	0	0	0	0	0	0	0	0	0	0
2.85	0.99527	0.00473	0	0	0	0	0	0	0	0	0	0	0	0	0	0	0	0	0	0
2.9	0.99426	0.00574	0	0	0	0	0	0	0	0	0	0	0	0	0	0	0	0	0	0
2.95	0.99196	0.00804	0	0	0	0	0	0	0	0	0	0	0	0	0	0	0	0	0	0
3	0.98947	0.01053	0	0	0	0	0	0	0	0	0	0	0	0	0	0	0	0	0	0
3.05	0.98661	0.01339	0	0	0	0	0	0	0	0	0	0	0	0	0	0	0	0	0	0
3.1	0.98292	0.01708	0	0	0	0	0	0	0	0	0	0	0	0	0	0	0	0	0	0
3.15	0.98562	0.01438	0	0	0	0	0	0	0	0	0	0	0	0	0	0	0	0	0	0
3.2	0.98799	0.01201	0	0	0	0	0	0	0	0	0	0	0	0	0	0	0	0	0	0
3.25	0.98457	0.01543	0	0	0	0	0	0	0	0	0	0	0	0	0	0	0	0	0	0
3.3	0.97943	0.02057	0	0	0	0	0	0	0	0	0	0	0	0	0	0	0	0	0	0
3.35	0.96779	0.03221	0	0	0	0	0	0	0	0	0	0	0	0	0	0	0	0	0	0
3.4	0.95501	0.04499	0	0	0	0	0	0	0	0	0	0	0	0	0	0	0	0	0	0
3.45	0.95883	0.04117	0	0	0	0	0	0	0	0	0	0	0	0	0	0	0	0	0	0
3.5	0.96832	0.03168	0	0	0	0	0	0	0	0	0	0	0	0	0	0	0	0	0	0
3.55	0.96957	0.03043	0	0	0	0	0	0	0	0	0	0	0	0	0	0	0	0	0	0
3.6	0.96357	0.03643	0	0	0	0	0	0	0	0	0	0	0	0	0	0	0	0	0	0
3.65	0.96659	0.03341	0	0	0	0	0	0	0	0	0	0	0	0	0	0	0	0	0	0
3.7	0.97112	0.02888	0	0	0	0	0	0	0	0	0	0	0	0	0	0	0	0	0	0
3.75	0.9684	0.0316	0	0	0	0	0	0	0	0	0	0	0	0	0	0	0	0	0	0
3.8	0.96887	0.03113	0	0	0	0	0	0	0	0	0	0	0	0	0	0	0	0	0	0
3.85	0.96819	0.03181	0	0	0	0	0	0	0	0	0	0	0	0	0	0	0	0	0	0
3.9	0.96239	0.03761	0	0	0	0	0	0	0	0	0	0	0	0	0	0	0	0	0	0
3.95	0.95545	0.04455	0	0	0	0	0	0	0	0	0	0	0	0	0	0	0	0	0	0
4	0.94726	0.05274	0	0	0	0	0	0	0	0	0	0	0	0	0	0	0	0	0	0
4.05	0.93735	0.06265	0	0	0	0	0	0	0	0	0	0	0	0	0	0	0	0	0	0
4.1	0.93147	0.06853	0	0	0	0	0	0	0	0	0	0	0	0	0	0	0	0	0	0
4.15	0.92679	0.07321	0	0	0	0	0	0	0	0	0	0	0	0	0	0	0	0	0	0
4.2	0.91418	0.08582	0	0	0	0	0	0	0	0	0	0	0	0	0	0	0	0	0	0
4.25	0.89634	0.10366	0	0	0	0	0	0	0	0	0	0	0	0	0	0	0	0	0	0
4.3	0.88167	0.11833	0	0	0	0	0	0	0	0	0	0	0	0	0	0	0	0	0	0
4.35	0.87047	0.12953	0	0	0	0	0	0	0	0	0	0	0	0	0	0	0	0	0	0
4.4	0.8745	0.12549	1e-05	0	0	0	0	0	0	0	0	0	0	0	0	0	0	0	0	0
4.45	0.87631	0.12369	0	0	0	0	0	0	0	0	0	0	0	0	0	0	0	0	0	0
4.5	0.87096	0.12904	0	0	0	0	0	0	0	0	0	0	0	0	0	0	0	0	0	0
4.55	0.86458	0.13541	1e-05	0	0	0	0	0	0	0	0	0	0	0	0	0	0	0	0	0
4.6	0.8597	0.14028	2e-05	0	0	0	0	0	0	0	0	0	0	0	0	0	0	0	0	0
4.65	0.85359	0.14637	4e-05	0	0	0	0	0	0	0	0	0	0	0	0	0	0	0	0	0
4.7	0.84699	0.153	1e-05	0	0	0	0	0	0	0	0	0	0	0	0	0	0	0	0	0
4.75	0.8429	0.15706	4e-05	0	0	0	0	0	0	0	0	0	0	0	0	0	0	0	0	0
4.8	0.84061	0.15936	3e-05	0	0	0	0	0	0	0	0	0	0	0	0	0	0	0	0	0
4.85	0.83844	0.16155	1e-05	0	0	0	0	0	0	0	0	0	0	0	0	0	0	0	0	0
4.9	0.83189	0.16805	6e-05	0	0	0	0	0	0	0	0	0	0	0	0	0	0	0	0	0
4.95	0.82466	0.17523	0.00011	0	0	0	0	0	0	0	0	0	0	0	0	0	0	0	0	0
5	0.81502	0.18487	0.00011	0	0	0	0	0	0	0	0	0	0	0	0	0	0	0	0	0
5.05	0.80938	0.19045	0.00017	0	0	0	0	0	0	0	0	0	0	0	0	0	0	0	0	0
5.1	0.80066	0.19918	0.00016	0	0	0	0	0	0	0	0	0	0	0	0	0	0	0	0	0
5.15	0.79295	0.20681	0.00024	0	0	0	0	0	0	0	0	0	0	0	0	0	0	0	0	0
5.2	0.78569	0.21404	0.00027	0	0	0	0	0	0	0	0	0	0	0	0	0	0	0	0	0
5.25	0.78318	0.21654	0.00028	0	0	0	0	0	0	0	0	0	0	0	0	0	0	0	0	0
5.3	0.7729	0.22663	0.00047	0	0	0	0	0	0	0	0	0	0	0	0	0	0	0	0	0
5.35	0.76561	0.2339	0.00049	0	0	0	0	0	0	0	0	0	0	0	0	0	0	0	0	0
5.4	0.7548	0.24462	0.00058	0	0	0	0	0	0	0	0	0	0	0	0	0	0	0	0	0
5.45	0.74795	0.2512	0.00085	0	0	0	0	0	0	0	0	0	0	0	0	0	0	0	0	0
5.5	0.74064	0.25859	0.00077	0	0	0	0	0	0	0	0	0	0	0	0	0	0	0	0	0
5.55	0.73039	0.26859	0.00102	0	0	0	0	0	0	0	0	0	0	0	0	0	0	0	0	0
5.6	0.72245	0.27622	0.00133	0	0	0	0	0	0	0	0	0	0	0	0	0	0	0	0	0
5.65	0.71299	0.28545	0.00156	0	0	0	0	0	0	0	0	0	0	0	0	0	0	0	0	0
5.7	0.70272	0.29526	0.00202	0	0	0	0	0	0	0	0	0	0	0	0	0	0	0	0	0
5.75	0.69101	0.30701	0.00198	0	0	0	0	0	0	0	0	0	0	0	0	0	0	0	0	0
5.8	0.68172	0.31578	0.0025	0	0	0	0	0	0	0	0	0	0	0	0	0	0	0	0	0
5.85	0.6712	0.32533	0.00347	0	0	0	0	0	0	0	0	0	0	0	0	0	0	0	0	0
5.9	0.65598	0.34001	0.00401	0	0	0	0	0	0	0	0	0	0	0	0	0	0	0	0	0
5.95	0.6456	0.3497	0.0047	0	0	0	0	0	0	0	0	0	0	0	0	0	0	0	0	0
6	0.62509	0.3696	0.00531	0	0	0	0	0	0	0	0	0	0	0	0	0	0	0	0	0
6.05	0.59983	0.39414	0.00603	0	0	0	0	0	0	0	0	0	0	0	0	0	0	0	0	0
6.1	0.5795	0.41322	0.00728	0	0	0	0	0	0	0	0	0	0	0	0	0	0	0	0	0
6.15	0.56408	0.42745	0.00847	0	0	0	0	0	0	0	0	0	0	0	0	0	0	0	0	0
6.2	0.54983	0.44064	0.00953	0	0	0	0	0	0	0	0	0	0	0	0	0	0	0	0	0
6.25	0.53816	0.45118	0.01066	0	0	0	0	0	0	0	0	0	0	0	0	0	0	0	0	0
6.3	0.52226	0.46434	0.0134	0	0	0	0	0	0	0	0	0	0	0	0	0	0	0	0	0
6.35	0.5007	0.48397	0.01533	0	0	0	0	0	0	0	0	0	0	0	0	0	0	0	0	0
6.4	0.48342	0.50023	0.01635	0	0	0	0	0	0	0	0	0	0	0	0	0	0	0	0	0
6.45	0.46105	0.51987	0.01908	0	0	0	0	0	0	0	0	0	0	0	0	0	0	0	0	0
6.5	0.44002	0.53826	0.02171	1e-05	0	0	0	0	0	0	0	0	0	0	0	0	0	0	0	0
6.55	0.41404	0.56214	0.02382	0	0	0	0	0	0	0	0	0	0	0	0	0	0	0	0	0
6.6	0.40209	0.57246	0.02544	1e-05	0	0	0	0	0	0	0	0	0	0	0	0	0	0	0	0
6.65	0.38228	0.58818	0.02954	0	0	0	0	0	0	0	0	0	0	0	0	0	0	0	0	0
6.7	0.36916	0.59737	0.03347	0	0	0	0	0	0	0	0	0	0	0	0	0	0	0	0	0
6.75	0.35059	0.61185	0.03756	0	0	0	0	0	0	0	0	0	0	0	0	0	0	0	0	0
6.8	0.33404	0.6232	0.04273	3e-05	0	0	0	0	0	0	0	0	0	0	0	0	0	0	0	0
6.85	0.32155	0.63262	0.04583	0	0	0	0	0	0	0	0	0	0	0	0	0	0	0	0	0
6.9	0.30373	0.64482	0.05142	3e-05	0	0	0	0	0	0	0	0	0	0	0	0	0	0	0	0
6.95	0.30183	0.64007	0.05807	3e-05	0	0	0	0	0	0	0	0	0	0	0	0	0	0	0	0
7	0.29686	0.63764	0.06549	1e-05	0	0	0	0	0	0	0	0	0	0	0	0	0	0	0	0
7.05	0.28841	0.63659	0.07497	3e-05	0	0	0	0	0	0	0	0	0	0	0	0	0	0	0	0
7.1	0.28194	0.63478	0.08321	7e-05	0	0	0	0	0	0	0	0	0	0	0	0	0	0	0	0
7.15	0.26965	0.63976	0.09055	4e-05	0	0	0	0	0	0	0	0	0	0	0	0	0	0	0	0
7.2	0.25464	0.64314	0.10218	4e-05	0	0	0	0	0	0	0	0	0	0	0	0	0	0	0	0
7.25	0.24028	0.64926	0.11032	0.00014	0	0	0	0	0	0	0	0	0	0	0	0	0	0	0	0
7.3	0.22023	0.66158	0.11805	0.00014	0	0	0	0	0	0	0	0	0	0	0	0	0	0	0	0
7.35	0.19375	0.68588	0.12027	0.0001	0	0	0	0	0	0	0	0	0	0	0	0	0	0	0	0
7.4	0.1664	0.71104	0.12243	0.00013	0	0	0	0	0	0	0	0	0	0	0	0	0	0	0	0
7.45	0.13577	0.74219	0.1218	0.00024	0	0	0	0	0	0	0	0	0	0	0	0	0	0	0	0
7.5	0.10163	0.77613	0.12199	0.00025	0	0	0	0	0	0	0	0	0	0	0	0	0	0	0	0
7.55	0.0616	0.79908	0.13896	0.00036	0	0	0	0	0	0	0	0	0	0	0	0	0	0	0	0
7.6	0.05121	0.79112	0.15705	0.00062	0	0	0	0	0	0	0	0	0	0	0	0	0	0	0	0
7.65	0.04094	0.78111	0.17704	0.00091	0	0	0	0	0	0	0	0	0	0	0	0	0	0	0	0
7.7	0.03177	0.75751	0.20954	0.00118	0	0	0	0	0	0	0	0	0	0	0	0	0	0	0	0
7.75	0.02256	0.73039	0.24517	0.00188	0	0	0	0	0	0	0	0	0	0	0	0	0	0	0	0
7.8	0.02059	0.72241	0.2547	0.0023	0	0	0	0	0	0	0	0	0	0	0	0	0	0	0	0
7.85	0.01824	0.70991	0.26942	0.00243	0	0	0	0	0	0	0	0	0	0	0	0	0	0	0	0
7.9	0.01637	0.69497	0.28581	0.00285	0	0	0	0	0	0	0	0	0	0	0	0	0	0	0	0
7.95	0.01437	0.68636	0.29573	0.00354	0	0	0	0	0	0	0	0	0	0	0	0	0	0	0	0
8	0.01262	0.67506	0.30837	0.00395	0	0	0	0	0	0	0	0	0	0	0	0	0	0	0	0
8.05	0.01028	0.6645	0.32079	0.00442	1e-05	0	0	0	0	0	0	0	0	0	0	0	0	0	0	0
8.1	0.00983	0.6462	0.33853	0.00543	1e-05	0	0	0	0	0	0	0	0	0	0	0	0	0	0	0
8.15	0.00769	0.63551	0.35128	0.00552	0	0	0	0	0	0	0	0	0	0	0	0	0	0	0	0
8.2	0.00692	0.62287	0.3635	0.0067	1e-05	0	0	0	0	0	0	0	0	0	0	0	0	0	0	0
8.25	0.00577	0.6081	0.37857	0.00756	0	0	0	0	0	0	0	0	0	0	0	0	0	0	0	0
8.3	0.00517	0.59191	0.3943	0.00862	0	0	0	0	0	0	0	0	0	0	0	0	0	0	0	0
8.35	0.0042	0.58203	0.40445	0.00932	0	0	0	0	0	0	0	0	0	0	0	0	0	0	0	0
8.4	0.00361	0.56739	0.41848	0.01052	0	0	0	0	0	0	0	0	0	0	0	0	0	0	0	0
8.45	0.00363	0.55682	0.42831	0.01124	0	0	0	0	0	0	0	0	0	0	0	0	0	0	0	0
8.5	0.00308	0.54182	0.44181	0.01328	1e-05	0	0	0	0	0	0	0	0	0	0	0	0	0	0	0
8.55	0.00291	0.53293	0.4497	0.01444	2e-05	0	0	0	0	0	0	0	0	0	0	0	0	0	0	0
8.6	0.00242	0.52116	0.46093	0.01549	0	0	0	0	0	0	0	0	0	0	0	0	0	0	0	0
8.65	0.00195	0.5094	0.47112	0.01749	4e-05	0	0	0	0	0	0	0	0	0	0	0	0	0	0	0
8.7	0.00154	0.50061	0.47972	0.01812	1e-05	0	0	0	0	0	0	0	0	0	0	0	0	0	0	0
8.75	0.00137	0.48684	0.491	0.02078	1e-05	0	0	0	0	0	0	0	0	0	0	0	0	0	0	0
8.8	0.00133	0.479	0.49761	0.02204	2e-05	0	0	0	0	0	0	0	0	0	0	0	0	0	0	0
8.85	0.00093	0.46537	0.50956	0.02413	1e-05	0	0	0	0	0	0	0	0	0	0	0	0	0	0	0
8.9	0.00088	0.45478	0.51986	0.02446	2e-05	0	0	0	0	0	0	0	0	0	0	0	0	0	0	0
8.95	0.00064	0.44545	0.52681	0.02707	3e-05	0	0	0	0	0	0	0	0	0	0	0	0	0	0	0
9	0.00062	0.43544	0.53445	0.02944	5e-05	0	0	0	0	0	0	0	0	0	0	0	0	0	0	0
9.05	0.00062	0.42238	0.54439	0.03257	4e-05	0	0	0	0	0	0	0	0	0	0	0	0	0	0	0
9.1	0.00037	0.41597	0.54964	0.03397	5e-05	0	0	0	0	0	0	0	0	0	0	0	0	0	0	0
9.15	0.00029	0.40562	0.5578	0.03627	2e-05	0	0	0	0	0	0	0	0	0	0	0	0	0	0	0
9.2	0.00028	0.39304	0.5678	0.03882	6e-05	0	0	0	0	0	0	0	0	0	0	0	0	0	0	0
9.25	0.00026	0.3822	0.57461	0.04284	9e-05	0	0	0	0	0	0	0	0	0	0	0	0	0	0	0
9.3	0.00027	0.37358	0.58144	0.04461	0.0001	0	0	0	0	0	0	0	0	0	0	0	0	0	0	0
9.35	0.00016	0.36275	0.58783	0.04912	0.00014	0	0	0	0	0	0	0	0	0	0	0	0	0	0	0
9.4	0.00014	0.35359	0.59511	0.05106	0.0001	0	0	0	0	0	0	0	0	0	0	0	0	0	0	0
9.45	8e-05	0.3424	0.6029	0.0545	0.00012	0	0	0	0	0	0	0	0	0	0	0	0	0	0	0
9.5	0.00014	0.33532	0.60649	0.0579	0.00015	0	0	0	0	0	0	0	0	0	0	0	0	0	0	0
9.55	6e-05	0.32408	0.61382	0.06186	0.00018	0	0	0	0	0	0	0	0	0	0	0	0	0	0	0
9.6	0.0001	0.31583	0.61857	0.06526	0.00024	0	0	0	0	0	0	0	0	0	0	0	0	0	0	0
9.65	9e-05	0.30895	0.62183	0.06883	0.0003	0	0	0	0	0	0	0	0	0	0	0	0	0	0	0
9.7	4e-05	0.29912	0.62813	0.0724	0.00031	0	0	0	0	0	0	0	0	0	0	0	0	0	0	0
9.75	0	0.29003	0.63136	0.07816	0.00045	0	0	0	0	0	0	0	0	0	0	0	0	0	0	0
9.8	1e-05	0.28304	0.63547	0.08107	0.00041	0	0	0	0	0	0	0	0	0	0	0	0	0	0	0
9.85	2e-05	0.27259	0.64004	0.08693	0.00042	0	0	0	0	0	0	0	0	0	0	0	0	0	0	0
9.9	3e-05	0.26392	0.64277	0.09277	0.00051	0	0	0	0	0	0	0	0	0	0	0	0	0	0	0
9.95	0	0.25558	0.64803	0.09572	0.00067	0	0	0	0	0	0	0	0	0	0	0	0	0	0	0
10	3e-05	0.24833	0.65051	0.10035	0.00078	0	0	0	0	0	0	0	0	0	0	0	0	0	0	0
10.05	0	0.23854	0.65336	0.10724	0.00086	0	0	0	0	0	0	0	0	0	0	0	0	0	0	0
10.1	1e-05	0.23193	0.65628	0.11068	0.0011	0	0	0	0	0	0	0	0	0	0	0	0	0	0	0
10.15	0	0.22531	0.65733	0.11636	0.001	0	0	0	0	0	0	0	0	0	0	0	0	0	0	0
10.2	0	0.21667	0.66027	0.12198	0.00108	0	0	0	0	0	0	0	0	0	0	0	0	0	0	0
10.25	0	0.21088	0.66139	0.12645	0.00128	0	0	0	0	0	0	0	0	0	0	0	0	0	0	0
10.3	0	0.20175	0.66233	0.13452	0.0014	0	0	0	0	0	0	0	0	0	0	0	0	0	0	0
10.35	0	0.19771	0.66341	0.13747	0.0014	1e-05	0	0	0	0	0	0	0	0	0	0	0	0	0	0
10.4	0	0.1867	0.66511	0.14632	0.00187	0	0	0	0	0	0	0	0	0	0	0	0	0	0	0
10.45	0	0.18384	0.66203	0.15194	0.00219	0	0	0	0	0	0	0	0	0	0	0	0	0	0	0
10.5	0	0.17432	0.66757	0.1558	0.00231	0	0	0	0	0	0	0	0	0	0	0	0	0	0	0
10.55	0	0.17142	0.66187	0.1643	0.00241	0	0	0	0	0	0	0	0	0	0	0	0	0	0	0
10.6	0	0.16436	0.66342	0.16935	0.00287	0	0	0	0	0	0	0	0	0	0	0	0	0	0	0
10.65	0	0.15744	0.66391	0.17599	0.00266	0	0	0	0	0	0	0	0	0	0	0	0	0	0	0
10.7	0	0.15162	0.66024	0.18493	0.00321	0	0	0	0	0	0	0	0	0	0	0	0	0	0	0
10.75	0	0.14876	0.65761	0.18958	0.00404	1e-05	0	0	0	0	0	0	0	0	0	0	0	0	0	0
10.8	0	0.14011	0.65892	0.19692	0.00405	0	0	0	0	0	0	0	0	0	0	0	0	0	0	0
10.85	0	0.13666	0.65436	0.2046	0.00438	0	0	0	0	0	0	0	0	0	0	0	0	0	0	0
10.9	0	0.1318	0.65204	0.2113	0.00485	1e-05	0	0	0	0	0	0	0	0	0	0	0	0	0	0
10.95	0	0.12685	0.65053	0.21737	0.00524	1e-05	0	0	0	0	0	0	0	0	0	0	0	0	0	0
11	0	0.12114	0.64772	0.22533	0.00581	0	0	0	0	0	0	0	0	0	0	0	0	0	0	0
11.05	0	0.11679	0.64588	0.23118	0.00613	2e-05	0	0	0	0	0	0	0	0	0	0	0	0	0	0
11.1	0	0.11007	0.64427	0.23915	0.0065	1e-05	0	0	0	0	0	0	0	0	0	0	0	0	0	0
11.15	0	0.10604	0.63791	0.24822	0.0078	3e-05	0	0	0	0	0	0	0	0	0	0	0	0	0	0
11.2	0	0.10359	0.63089	0.25745	0.00806	1e-05	0	0	0	0	0	0	0	0	0	0	0	0	0	0
11.25	0	0.09847	0.63172	0.26098	0.00881	2e-05	0	0	0	0	0	0	0	0	0	0	0	0	0	0
11.3	0	0.0925	0.62714	0.2705	0.00984	2e-05	0	0	0	0	0	0	0	0	0	0	0	0	0	0
11.35	0	0.09099	0.62164	0.27691	0.01043	3e-05	0	0	0	0	0	0	0	0	0	0	0	0	0	0
11.4	0	0.08647	0.6163	0.28632	0.01086	5e-05	0	0	0	0	0	0	0	0	0	0	0	0	0	0
11.45	0	0.08299	0.6092	0.29577	0.01198	6e-05	0	0	0	0	0	0	0	0	0	0	0	0	0	0
11.5	0	0.08003	0.60399	0.30333	0.0126	5e-05	0	0	0	0	0	0	0	0	0	0	0	0	0	0
11.55	0	0.07607	0.60081	0.30918	0.01393	1e-05	0	0	0	0	0	0	0	0	0	0	0	0	0	0
11.6	0	0.07221	0.59434	0.31896	0.01447	2e-05	0	0	0	0	0	0	0	0	0	0	0	0	0	0
11.65	0	0.06869	0.59232	0.32364	0.01529	6e-05	0	0	0	0	0	0	0	0	0	0	0	0	0	0
11.7	0	0.0658	0.5848	0.33176	0.01762	2e-05	0	0	0	0	0	0	0	0	0	0	0	0	0	0
11.75	0	0.06316	0.57721	0.34132	0.01827	4e-05	0	0	0	0	0	0	0	0	0	0	0	0	0	0
11.8	0	0.05997	0.57066	0.34948	0.01979	0.0001	0	0	0	0	0	0	0	0	0	0	0	0	0	0
11.85	0	0.05665	0.56597	0.35671	0.02055	0.00012	0	0	0	0	0	0	0	0	0	0	0	0	0	0
11.9	0	0.0545	0.5586	0.36442	0.02236	0.00012	0	0	0	0	0	0	0	0	0	0	0	0	0	0
11.95	0	0.05229	0.55299	0.37168	0.02293	0.00011	0	0	0	0	0	0	0	0	0	0	0	0	0	0
12	0	0.04984	0.5462	0.37953	0.02434	9e-05	0	0	0	0	0	0	0	0	0	0	0	0	0	0
12.05	0	0.04674	0.53911	0.38644	0.02758	0.00013	0	0	0	0	0	0	0	0	0	0	0	0	0	0
12.1	0	0.04476	0.53064	0.39638	0.02804	0.00018	0	0	0	0	0	0	0	0	0	0	0	0	0	0
12.15	0	0.04269	0.52359	0.40352	0.03008	0.00012	0	0	0	0	0	0	0	0	0	0	0	0	0	0
12.2	0	0.04085	0.51796	0.40946	0.03159	0.00014	0	0	0	0	0	0	0	0	0	0	0	0	0	0
12.25	0	0.03815	0.50982	0.4178	0.03389	0.00034	0	0	0	0	0	0	0	0	0	0	0	0	0	0
12.3	0	0.03511	0.50532	0.42411	0.03526	0.0002	0	0	0	0	0	0	0	0	0	0	0	0	0	0
12.35	0	0.03486	0.49809	0.42876	0.03802	0.00027	0	0	0	0	0	0	0	0	0	0	0	0	0	0
12.4	0	0.03295	0.49096	0.43523	0.04056	0.0003	0	0	0	0	0	0	0	0	0	0	0	0	0	0
12.45	0	0.0308	0.48046	0.44562	0.04283	0.00029	0	0	0	0	0	0	0	0	0	0	0	0	0	0
12.5	0	0.03028	0.47553	0.44826	0.04546	0.00047	0	0	0	0	0	0	0	0	0	0	0	0	0	0
12.55	0	0.02893	0.46636	0.4567	0.04754	0.00047	0	0	0	0	0	0	0	0	0	0	0	0	0	0
12.6	0	0.0269	0.45997	0.46257	0.05011	0.00045	0	0	0	0	0	0	0	0	0	0	0	0	0	0
12.65	0	0.02539	0.45251	0.47051	0.05103	0.00056	0	0	0	0	0	0	0	0	0	0	0	0	0	0
12.7	0	0.02352	0.44468	0.47421	0.05697	0.00062	0	0	0	0	0	0	0	0	0	0	0	0	0	0
12.75	0	0.022	0.43839	0.48116	0.05789	0.00056	0	0	0	0	0	0	0	0	0	0	0	0	0	0
12.8	0	0.02178	0.42891	0.48851	0.06012	0.00068	0	0	0	0	0	0	0	0	0	0	0	0	0	0
12.85	0	0.02004	0.41974	0.4955	0.06385	0.00087	0	0	0	0	0	0	0	0	0	0	0	0	0	0
12.9	0	0.01831	0.41388	0.49923	0.06768	0.0009	0	0	0	0	0	0	0	0	0	0	0	0	0	0
12.95	0	0.01794	0.40461	0.50543	0.07111	0.00091	0	0	0	0	0	0	0	0	0	0	0	0	0	0
13	0	0.01678	0.39848	0.50852	0.07521	0.00101	0	0	0	0	0	0	0	0	0	0	0	0	0	0
13.05	0	0.0153	0.39168	0.51545	0.07627	0.0013	0	0	0	0	0	0	0	0	0	0	0	0	0	0
13.1	0	0.01523	0.38271	0.51866	0.08218	0.00122	0	0	0	0	0	0	0	0	0	0	0	0	0	0
13.15	0	0.01386	0.37739	0.52161	0.08568	0.00146	0	0	0	0	0	0	0	0	0	0	0	0	0	0
13.2	0	0.01239	0.36554	0.53233	0.08824	0.00149	1e-05	0	0	0	0	0	0	0	0	0	0	0	0	0
13.25	0	0.01215	0.36091	0.53329	0.09173	0.00192	0	0	0	0	0	0	0	0	0	0	0	0	0	0
13.3	0	0.01099	0.35267	0.53772	0.09673	0.00188	1e-05	0	0	0	0	0	0	0	0	0	0	0	0	0
13.35	0	0.01097	0.34565	0.5398	0.10152	0.00206	0	0	0	0	0	0	0	0	0	0	0	0	0	0
13.4	0	0.01036	0.33988	0.54621	0.10154	0.00201	0	0	0	0	0	0	0	0	0	0	0	0	0	0
13.45	0	0.00903	0.3329	0.54779	0.10779	0.00249	0	0	0	0	0	0	0	0	0	0	0	0	0	0
13.5	0	0.00896	0.32601	0.55438	0.10794	0.0027	1e-05	0	0	0	0	0	0	0	0	0	0	0	0	0
13.55	0	0.00841	0.31824	0.55794	0.11285	0.00255	1e-05	0	0	0	0	0	0	0	0	0	0	0	0	0
13.6	0	0.00782	0.31409	0.55925	0.11615	0.00268	1e-05	0	0	0	0	0	0	0	0	0	0	0	0	0
13.65	0	0.00748	0.3101	0.5594	0.12016	0.00286	0	0	0	0	0	0	0	0	0	0	0	0	0	0
13.7	0	0.00694	0.29932	0.56518	0.12509	0.00345	2e-05	0	0	0	0	0	0	0	0	0	0	0	0	0
13.75	0	0.00614	0.29544	0.56695	0.12817	0.00329	1e-05	0	0	0	0	0	0	0	0	0	0	0	0	0
13.8	0	0.00551	0.28853	0.5704	0.13212	0.00342	2e-05	0	0	0	0	0	0	0	0	0	0	0	0	0
13.85	0	0.006	0.28211	0.57193	0.13591	0.00405	0	0	0	0	0	0	0	0	0	0	0	0	0	0
13.9	0	0.00513	0.27551	0.57455	0.14095	0.00386	0	0	0	0	0	0	0	0	0	0	0	0	0	0
13.95	0	0.0045	0.27206	0.57373	0.14564	0.00406	1e-05	0	0	0	0	0	0	0	0	0	0	0	0	0
14	0	0.00425	0.26355	0.5815	0.14615	0.00454	1e-05	0	0	0	0	0	0	0	0	0	0	0	0	0
14.05	0	0.00368	0.25955	0.57673	0.1548	0.00524	0	0	0	0	0	0	0	0	0	0	0	0	0	0
14.1	0	0.00406	0.254	0.57895	0.15788	0.00506	5e-05	0	0	0	0	0	0	0	0	0	0	0	0	0
14.15	0	0.00387	0.24625	0.58163	0.16271	0.00553	1e-05	0	0	0	0	0	0	0	0	0	0	0	0	0
14.2	0	0.00353	0.24184	0.58336	0.16522	0.00602	3e-05	0	0	0	0	0	0	0	0	0	0	0	0	0
14.25	0	0.00309	0.23847	0.58082	0.17132	0.00628	2e-05	0	0	0	0	0	0	0	0	0	0	0	0	0
14.3	0	0.00299	0.23111	0.58338	0.17537	0.00712	3e-05	0	0	0	0	0	0	0	0	0	0	0	0	0
14.35	0	0.00269	0.22549	0.58472	0.18042	0.00664	4e-05	0	0	0	0	0	0	0	0	0	0	0	0	0
14.4	0	0.00245	0.22574	0.57822	0.18568	0.00791	0	0	0	0	0	0	0	0	0	0	0	0	0	0
14.45	0	0.00219	0.21696	0.58252	0.1897	0.00859	4e-05	0	0	0	0	0	0	0	0	0	0	0	0	0
14.5	0	0.00232	0.21196	0.58308	0.19356	0.00902	6e-05	0	0	0	0	0	0	0	0	0	0	0	0	0
14.55	0	0.0017	0.20656	0.5842	0.19882	0.00869	3e-05	0	0	0	0	0	0	0	0	0	0	0	0	0
14.6	0	0.00161	0.20108	0.58536	0.20191	0.00998	6e-05	0	0	0	0	0	0	0	0	0	0	0	0	0
14.65	0	0.0018	0.19501	0.58608	0.20651	0.01054	6e-05	0	0	0	0	0	0	0	0	0	0	0	0	0
14.7	0	0.00137	0.19556	0.58026	0.21145	0.01126	0.0001	0	0	0	0	0	0	0	0	0	0	0	0	0
14.75	0	0.00138	0.1886	0.58062	0.21789	0.01143	8e-05	0	0	0	0	0	0	0	0	0	0	0	0	0
14.8	0	0.00124	0.1859	0.57862	0.2215	0.01262	0.00012	0	0	0	0	0	0	0	0	0	0	0	0	0
14.85	0	0.00103	0.18009	0.57722	0.22845	0.0131	0.00011	0	0	0	0	0	0	0	0	0	0	0	0	0
14.9	0	0.00123	0.17781	0.57544	0.23107	0.01433	0.00012	0	0	0	0	0	0	0	0	0	0	0	0	0
14.95	0	0.00093	0.17379	0.57236	0.23786	0.01493	0.00013	0	0	0	0	0	0	0	0	0	0	0	0	0
15	0	0.00084	0.16905	0.57108	0.24232	0.01659	0.00012	0	0	0	0	0	0	0	0	0	0	0	0	0
15.05	0	0.00089	0.16738	0.56832	0.24589	0.01735	0.00017	0	0	0	0	0	0	0	0	0	0	0	0	0
15.1	0	0.00081	0.16058	0.56698	0.25352	0.01788	0.00023	0	0	0	0	0	0	0	0	0	0	0	0	0
15.15	0	0.00073	0.15757	0.56423	0.25883	0.01843	0.00021	0	0	0	0	0	0	0	0	0	0	0	0	0
15.2	0	0.0006	0.15401	0.56148	0.26268	0.02098	0.00025	0	0	0	0	0	0	0	0	0	0	0	0	0
15.25	0	0.00056	0.15107	0.55765	0.26801	0.02245	0.00026	0	0	0	0	0	0	0	0	0	0	0	0	0
15.3	0	0.00067	0.14603	0.55559	0.27502	0.02247	0.00022	0	0	0	0	0	0	0	0	0	0	0	0	0
15.35	0	0.00043	0.14226	0.55358	0.27843	0.02504	0.00026	0	0	0	0	0	0	0	0	0	0	0	0	0
15.4	0	0.00046	0.14013	0.54774	0.2853	0.02604	0.00033	0	0	0	0	0	0	0	0	0	0	0	0	0
15.45	0	0.00049	0.13861	0.54348	0.28941	0.02763	0.00038	0	0	0	0	0	0	0	0	0	0	0	0	0
15.5	0	0.00039	0.13598	0.5363	0.29773	0.02923	0.00037	0	0	0	0	0	0	0	0	0	0	0	0	0
15.55	0	0.00038	0.13034	0.53195	0.30534	0.03148	0.00051	0	0	0	0	0	0	0	0	0	0	0	0	0
15.6	0	0.00037	0.12696	0.52755	0.31134	0.03336	0.00041	1e-05	0	0	0	0	0	0	0	0	0	0	0	0
15.65	0	0.00035	0.12124	0.52218	0.32029	0.0353	0.00064	0	0	0	0	0	0	0	0	0	0	0	0	0
15.7	0	0.00032	0.1181	0.5197	0.3231	0.03818	0.0006	0	0	0	0	0	0	0	0	0	0	0	0	0
15.75	0	0.0003	0.11398	0.51366	0.33317	0.03826	0.00063	0	0	0	0	0	0	0	0	0	0	0	0	0
15.8	0	0.00017	0.1091	0.5095	0.33846	0.04214	0.00063	0	0	0	0	0	0	0	0	0	0	0	0	0
15.85	0	0.00023	0.1061	0.50324	0.34527	0.04426	0.0009	0	0	0	0	0	0	0	0	0	0	0	0	0
15.9	0	0.00028	0.10202	0.49605	0.35212	0.04848	0.00105	0	0	0	0	0	0	0	0	0	0	0	0	0
15.95	0	0.00018	0.09973	0.49124	0.35629	0.0516	0.00096	0	0	0	0	0	0	0	0	0	0	0	0	0
16	0	0.00023	0.0948	0.48258	0.36746	0.05397	0.00096	0	0	0	0	0	0	0	0	0	0	0	0	0
16.05	0	0.00017	0.08941	0.47619	0.37664	0.05623	0.00136	0	0	0	0	0	0	0	0	0	0	0	0	0
16.1	0	0.00012	0.08751	0.46596	0.385	0.06003	0.00138	0	0	0	0	0	0	0	0	0	0	0	0	0
16.15	0	0.00024	0.08427	0.45778	0.39344	0.06284	0.00143	0	0	0	0	0	0	0	0	0	0	0	0	0
16.2	0	0.00012	0.08087	0.45331	0.39801	0.06604	0.00165	0	0	0	0	0	0	0	0	0	0	0	0	0
16.25	0	0.00012	0.07649	0.44668	0.40545	0.06953	0.00173	0	0	0	0	0	0	0	0	0	0	0	0	0
16.3	0	0.00018	0.07352	0.43771	0.41492	0.07179	0.00186	2e-05	0	0	0	0	0	0	0	0	0	0	0	0
16.35	0	0.00011	0.06937	0.42872	0.42187	0.07754	0.00238	1e-05	0	0	0	0	0	0	0	0	0	0	0	0
16.4	0	7e-05	0.06577	0.42251	0.43051	0.07871	0.00243	0	0	0	0	0	0	0	0	0	0	0	0	0
16.45	0	8e-05	0.06285	0.41088	0.44001	0.0837	0.00247	1e-05	0	0	0	0	0	0	0	0	0	0	0	0
16.5	0	7e-05	0.05944	0.40364	0.44785	0.08643	0.00255	2e-05	0	0	0	0	0	0	0	0	0	0	0	0
16.55	0	5e-05	0.05564	0.39439	0.45561	0.09168	0.00263	0	0	0	0	0	0	0	0	0	0	0	0	0
16.6	0	6e-05	0.05089	0.39098	0.46034	0.09486	0.00287	0	0	0	0	0	0	0	0	0	0	0	0	0
16.65	0	3e-05	0.04798	0.38012	0.47036	0.09852	0.00299	0	0	0	0	0	0	0	0	0	0	0	0	0
16.7	0	4e-05	0.04552	0.37146	0.47667	0.10322	0.00309	0	0	0	0	0	0	0	0	0	0	0	0	0
16.75	0	7e-05	0.04224	0.36591	0.48107	0.10722	0.00347	2e-05	0	0	0	0	0	0	0	0	0	0	0	0
16.8	0	6e-05	0.03904	0.36068	0.48741	0.109	0.0038	1e-05	0	0	0	0	0	0	0	0	0	0	0	0
16.85	0	6e-05	0.03704	0.35065	0.495	0.1132	0.00403	2e-05	0	0	0	0	0	0	0	0	0	0	0	0
16.9	0	5e-05	0.0336	0.34557	0.49801	0.11858	0.00418	1e-05	0	0	0	0	0	0	0	0	0	0	0	0
16.95	0	4e-05	0.03183	0.3381	0.50469	0.12076	0.00456	2e-05	0	0	0	0	0	0	0	0	0	0	0	0
17	0	0	0.02829	0.33027	0.51263	0.12388	0.00487	6e-05	0	0	0	0	0	0	0	0	0	0	0	0
17.05	0	1e-05	0.02729	0.32274	0.51601	0.1287	0.0052	5e-05	0	0	0	0	0	0	0	0	0	0	0	0
17.1	0	2e-05	0.02457	0.31611	0.52119	0.13288	0.00519	4e-05	0	0	0	0	0	0	0	0	0	0	0	0
17.15	0	3e-05	0.02293	0.31282	0.52361	0.13513	0.00546	2e-05	0	0	0	0	0	0	0	0	0	0	0	0
17.2	0	0	0.02068	0.31035	0.52243	0.13999	0.0065	5e-05	0	0	0	0	0	0	0	0	0	0	0	0
17.25	0	0	0.02041	0.30238	0.53	0.14061	0.00655	5e-05	0	0	0	0	0	0	0	0	0	0	0	0
17.3	0	1e-05	0.01837	0.29375	0.53476	0.14633	0.00673	5e-05	0	0	0	0	0	0	0	0	0	0	0	0
17.35	0	3e-05	0.01718	0.29253	0.53304	0.15016	0.007	6e-05	0	0	0	0	0	0	0	0	0	0	0	0
17.4	0	1e-05	0.01651	0.28409	0.53734	0.15444	0.00748	0.00013	0	0	0	0	0	0	0	0	0	0	0	0
17.45	0	0	0.0153	0.28106	0.53838	0.15684	0.00834	8e-05	0	0	0	0	0	0	0	0	0	0	0	0
17.5	0	0	0.01479	0.27391	0.54128	0.16103	0.00893	6e-05	0	0	0	0	0	0	0	0	0	0	0	0
17.55	0	0	0.01244	0.27165	0.54344	0.16295	0.0094	0.00012	0	0	0	0	0	0	0	0	0	0	0	0
17.6	0	0	0.01222	0.26782	0.54199	0.16817	0.00974	6e-05	0	0	0	0	0	0	0	0	0	0	0	0
17.65	0	0	0.01204	0.26379	0.54119	0.17207	0.0108	0.00011	0	0	0	0	0	0	0	0	0	0	0	0
17.7	0	0	0.01106	0.2596	0.5416	0.17616	0.01136	0.00022	0	0	0	0	0	0	0	0	0	0	0	0
17.75	0	0	0.01065	0.25215	0.5439	0.18183	0.01135	0.00012	0	0	0	0	0	0	0	0	0	0	0	0
17.8	0	0	0.00986	0.2496	0.54567	0.1821	0.01262	0.00015	0	0	0	0	0	0	0	0	0	0	0	0
17.85	0	0	0.00878	0.24535	0.54493	0.18715	0.01363	0.00016	0	0	0	0	0	0	0	0	0	0	0	0
17.9	0	0	0.00862	0.24133	0.54318	0.19238	0.01422	0.00027	0	0	0	0	0	0	0	0	0	0	0	0
17.95	0	0	0.00851	0.2378	0.54279	0.1962	0.01439	0.00031	0	0	0	0	0	0	0	0	0	0	0	0
18	0	0	0.00834	0.23521	0.54138	0.19868	0.01616	0.00023	0	0	0	0	0	0	0	0	0	0	0	0
18.05	0	0	0.00734	0.23149	0.53965	0.20423	0.01705	0.00024	0	0	0	0	0	0	0	0	0	0	0	0
18.1	0	0	0.00719	0.2241	0.54087	0.20899	0.01852	0.00033	0	0	0	0	0	0	0	0	0	0	0	0
18.15	0	0	0.00672	0.22124	0.54094	0.21226	0.01856	0.00028	0	0	0	0	0	0	0	0	0	0	0	0
18.2	0	0	0.00646	0.21641	0.53866	0.218	0.02024	0.00023	0	0	0	0	0	0	0	0	0	0	0	0
18.25	0	0	0.00637	0.21301	0.53915	0.2194	0.02165	0.00042	0	0	0	0	0	0	0	0	0	0	0	0
18.3	0	0	0.00574	0.20831	0.53575	0.22668	0.02308	0.00044	0	0	0	0	0	0	0	0	0	0	0	0
18.35	0	0	0.00555	0.20436	0.53438	0.23272	0.02261	0.00038	0	0	0	0	0	0	0	0	0	0	0	0
18.4	0	0	0.00544	0.20014	0.53267	0.23576	0.0255	0.00049	0	0	0	0	0	0	0	0	0	0	0	0
18.45	0	0	0.00505	0.19632	0.53111	0.241	0.02596	0.00056	0	0	0	0	0	0	0	0	0	0	0	0
18.5	0	0	0.0052	0.19529	0.52681	0.24558	0.02652	0.0006	0	0	0	0	0	0	0	0	0	0	0	0
18.55	0	0	0.00456	0.18703	0.52778	0.25048	0.02951	0.00064	0	0	0	0	0	0	0	0	0	0	0	0
18.6	0	0	0.00433	0.18479	0.52363	0.25562	0.03102	0.00061	0	0	0	0	0	0	0	0	0	0	0	0
18.65	0	0	0.00445	0.1825	0.51925	0.26127	0.03172	0.00081	0	0	0	0	0	0	0	0	0	0	0	0
18.7	0	0	0.00347	0.17927	0.51642	0.26658	0.03328	0.00098	0	0	0	0	0	0	0	0	0	0	0	0
18.75	0	0	0.00347	0.17462	0.51481	0.27237	0.03374	0.00099	0	0	0	0	0	0	0	0	0	0	0	0
18.8	0	0	0.00342	0.172	0.51104	0.2767	0.03591	0.00093	0	0	0	0	0	0	0	0	0	0	0	0
18.85	0	0	0.00303	0.16858	0.50909	0.28099	0.03734	0.00097	0	0	0	0	0	0	0	0	0	0	0	0
18.9	0	0	0.00301	0.16413	0.50488	0.28806	0.03903	0.00088	1e-05	0	0	0	0	0	0	0	0	0	0	0
18.95	0	0	0.00281	0.16087	0.50415	0.28995	0.04121	0.001	1e-05	0	0	0	0	0	0	0	0	0	0	0
19	0	0	0.00255	0.15702	0.49839	0.29772	0.04322	0.00109	1e-05	0	0	0	0	0	0	0	0	0	0	0
19.05	0	0	0.00242	0.15362	0.49699	0.30046	0.04495	0.00153	3e-05	0	0	0	0	0	0	0	0	0	0	0
19.1	0	0	0.00242	0.14972	0.49224	0.30758	0.04664	0.0014	0	0	0	0	0	0	0	0	0	0	0	0
19.15	0	0	0.00242	0.14539	0.48986	0.31213	0.04875	0.00144	1e-05	0	0	0	0	0	0	0	0	0	0	0
19.2	0	0	0.00211	0.14315	0.48637	0.31647	0.05041	0.00149	0	0	0	0	0	0	0	0	0	0	0	0
19.25	0	0	0.00184	0.13846	0.48461	0.3207	0.05261	0.00178	0	0	0	0	0	0	0	0	0	0	0	0
19.3	0	0	0.00192	0.13652	0.47573	0.32719	0.05661	0.00202	1e-05	0	0	0	0	0	0	0	0	0	0	0
19.35	0	0	0.0018	0.1333	0.47164	0.3337	0.05782	0.00174	0	0	0	0	0	0	0	0	0	0	0	0
19.4	0	0	0.00163	0.13061	0.46967	0.33804	0.05806	0.00197	2e-05	0	0	0	0	0	0	0	0	0	0	0
19.45	0	0	0.00172	0.1268	0.46369	0.34333	0.06218	0.00227	1e-05	0	0	0	0	0	0	0	0	0	0	0
19.5	0	0	0.00143	0.12539	0.45966	0.34703	0.06449	0.002	0	0	0	0	0	0	0	0	0	0	0	0
19.55	0	0	0.00148	0.11881	0.45873	0.35353	0.06473	0.0027	2e-05	0	0	0	0	0	0	0	0	0	0	0
19.6	0	0	0.00122	0.1185	0.44904	0.35963	0.06879	0.0028	2e-05	0	0	0	0	0	0	0	0	0	0	0
19.65	0	0	0.00121	0.11364	0.44871	0.36227	0.07118	0.00295	4e-05	0	0	0	0	0	0	0	0	0	0	0
19.7	0	0	0.00111	0.11086	0.44518	0.36713	0.07297	0.00272	3e-05	0	0	0	0	0	0	0	0	0	0	0
19.75	0	0	0.00098	0.10671	0.43795	0.37548	0.07547	0.00338	3e-05	0	0	0	0	0	0	0	0	0	0	0
19.8	0	0	0.00094	0.10554	0.43496	0.37838	0.07679	0.00334	5e-05	0	0	0	0	0	0	0	0	0	0	0
19.85	0	0	0.00096	0.10184	0.43066	0.38053	0.08216	0.00379	6e-05	0	0	0	0	0	0	0	0	0	0	0
19.9	0	0	0.00074	0.09897	0.42407	0.38941	0.083	0.00378	3e-05	0	0	0	0	0	0	0	0	0	0	0
19.95	0	0	0.00098	0.0975	0.42076	0.38832	0.08847	0.00394	3e-05	0	0	0	0	0	0	0	0	0	0	0
20	0	0	0.00087	0.09337	0.41474	0.39578	0.09089	0.00432	3e-05	0	0	0	0	0	0	0	0	0	0	0
20.05	0	0	0.00086	0.08967	0.41177	0.40003	0.09287	0.00473	7e-05	0	0	0	0	0	0	0	0	0	0	0
20.1	0	0	0.0007	0.0886	0.40714	0.40467	0.09412	0.00468	9e-05	0	0	0	0	0	0	0	0	0	0	0
20.15	0	0	0.00065	0.08457	0.4019	0.41105	0.09669	0.00507	7e-05	0	0	0	0	0	0	0	0	0	0	0
20.2	0	0	0.00064	0.08459	0.397	0.4121	0.10007	0.00553	7e-05	0	0	0	0	0	0	0	0	0	0	0
20.25	0	0	0.00068	0.08189	0.39015	0.41632	0.10502	0.00587	7e-05	0	0	0	0	0	0	0	0	0	0	0
20.3	0	0	0.00058	0.07645	0.38562	0.42191	0.10922	0.00614	8e-05	0	0	0	0	0	0	0	0	0	0	0
20.35	0	0	0.00054	0.07535	0.38111	0.42715	0.10902	0.00668	0.00015	0	0	0	0	0	0	0	0	0	0	0
20.4	0	0	0.00052	0.07477	0.37543	0.42868	0.1135	0.00699	0.00011	0	0	0	0	0	0	0	0	0	0	0
20.45	0	0	0.00044	0.07136	0.37027	0.43404	0.11663	0.00707	0.00019	0	0	0	0	0	0	0	0	0	0	0
20.5	0	0	0.00059	0.06799	0.36457	0.4386	0.12032	0.00779	0.00014	0	0	0	0	0	0	0	0	0	0	0
20.55	0	0	0.00036	0.06659	0.35716	0.44274	0.12482	0.00813	0.0002	0	0	0	0	0	0	0	0	0	0	0
20.6	0	0	0.0003	0.06419	0.35571	0.44222	0.12875	0.00873	0.0001	0	0	0	0	0	0	0	0	0	0	0
20.65	0	0	0.00042	0.06058	0.35102	0.44803	0.13064	0.00914	0.00017	0	0	0	0	0	0	0	0	0	0	0
20.7	0	0	0.00034	0.06005	0.34598	0.44982	0.13425	0.00938	0.00018	0	0	0	0	0	0	0	0	0	0	0
20.75	0	0	0.00037	0.05812	0.34473	0.45143	0.1345	0.01065	0.0002	0	0	0	0	0	0	0	0	0	0	0
20.8	0	0	0.00031	0.05631	0.33405	0.45628	0.14188	0.01097	0.0002	0	0	0	0	0	0	0	0	0	0	0
20.85	0	0	0.00029	0.05398	0.33078	0.45928	0.14351	0.01195	0.00021	0	0	0	0	0	0	0	0	0	0	0
20.9	0	0	0.00021	0.05212	0.32872	0.45858	0.1476	0.01245	0.00032	0	0	0	0	0	0	0	0	0	0	0
20.95	0	0	0.00016	0.04942	0.3196	0.46605	0.15184	0.01265	0.00028	0	0	0	0	0	0	0	0	0	0	0
21	0	0	0.00021	0.04918	0.31634	0.46418	0.15631	0.01354	0.00024	0	0	0	0	0	0	0	0	0	0	0
21.05	0	0	0.00017	0.04646	0.31154	0.4698	0.15763	0.01409	0.0003	1e-05	0	0	0	0	0	0	0	0	0	0
21.1	0	0	0.00017	0.04354	0.30584	0.47291	0.16223	0.01486	0.00045	0	0	0	0	0	0	0	0	0	0	0
21.15	0	0	0.00025	0.04285	0.30187	0.47046	0.16817	0.01598	0.00042	0	0	0	0	0	0	0	0	0	0	0
21.2	0	0	0.00016	0.04006	0.29847	0.47118	0.17298	0.01673	0.00042	0	0	0	0	0	0	0	0	0	0	0
21.25	0	0	0.00014	0.0404	0.29127	0.4763	0.17412	0.0174	0.00037	0	0	0	0	0	0	0	0	0	0	0
21.3	0	0	0.0002	0.03748	0.28437	0.47784	0.18124	0.01826	0.00061	0	0	0	0	0	0	0	0	0	0	0
21.35	0	0	0.00018	0.03676	0.28152	0.4784	0.1834	0.01929	0.00045	0	0	0	0	0	0	0	0	0	0	0
21.4	0	0	0.00014	0.03444	0.27769	0.47801	0.18879	0.02041	0.00051	1e-05	0	0	0	0	0	0	0	0	0	0
21.45	0	0	9e-05	0.03488	0.27044	0.48058	0.19152	0.02177	0.00072	0	0	0	0	0	0	0	0	0	0	0
21.5	0	0	9e-05	0.0321	0.26774	0.48378	0.19319	0.02239	0.00071	0	0	0	0	0	0	0	0	0	0	0
21.55	0	0	9e-05	0.03138	0.26351	0.48333	0.19709	0.02388	0.00071	1e-05	0	0	0	0	0	0	0	0	0	0
21.6	0	0	0.0001	0.03026	0.25761	0.48228	0.20389	0.02499	0.00086	1e-05	0	0	0	0	0	0	0	0	0	0
21.65	0	0	0.0001	0.02839	0.25461	0.4813	0.20926	0.02557	0.00076	1e-05	0	0	0	0	0	0	0	0	0	0
21.7	0	0	3e-05	0.02695	0.24888	0.48454	0.21223	0.02686	0.00051	0	0	0	0	0	0	0	0	0	0	0
21.75	0	0	6e-05	0.02659	0.24514	0.48586	0.21375	0.02781	0.00079	0	0	0	0	0	0	0	0	0	0	0
21.8	0	0	0.0001	0.02526	0.2407	0.48198	0.2228	0.02835	0.00081	0	0	0	0	0	0	0	0	0	0	0
21.85	0	0	6e-05	0.02351	0.23628	0.48291	0.22541	0.03086	0.00096	1e-05	0	0	0	0	0	0	0	0	0	0
21.9	0	0	6e-05	0.02255	0.23044	0.48656	0.22767	0.0315	0.00121	1e-05	0	0	0	0	0	0	0	0	0	0
21.95	0	0	8e-05	0.02206	0.22771	0.48237	0.23288	0.03377	0.00112	1e-05	0	0	0	0	0	0	0	0	0	0
22	0	0	0.00011	0.02046	0.22459	0.48126	0.23782	0.03462	0.00113	1e-05	0	0	0	0	0	0	0	0	0	0
22.05	0	0	7e-05	0.0196	0.22099	0.47919	0.24288	0.03619	0.00105	3e-05	0	0	0	0	0	0	0	0	0	0
22.1	0	0	5e-05	0.01868	0.21398	0.47896	0.24854	0.03855	0.00123	1e-05	0	0	0	0	0	0	0	0	0	0
22.15	0	0	2e-05	0.0176	0.20923	0.47968	0.25192	0.03993	0.00159	3e-05	0	0	0	0	0	0	0	0	0	0
22.2	0	0	4e-05	0.01664	0.20838	0.47627	0.2577	0.03955	0.0014	2e-05	0	0	0	0	0	0	0	0	0	0
22.25	0	0	4e-05	0.01689	0.20336	0.47432	0.26124	0.04237	0.00178	0	0	0	0	0	0	0	0	0	0	0
22.3	0	0	2e-05	0.01457	0.19741	0.47475	0.26686	0.04423	0.00214	2e-05	0	0	0	0	0	0	0	0	0	0
22.35	0	0	4e-05	0.01498	0.19485	0.47326	0.26985	0.04522	0.00177	3e-05	0	0	0	0	0	0	0	0	0	0
22.4	0	0	5e-05	0.01351	0.19155	0.46867	0.27808	0.04603	0.00208	3e-05	0	0	0	0	0	0	0	0	0	0
22.45	0	0	3e-05	0.01383	0.18636	0.47122	0.27803	0.04846	0.00207	0	0	0	0	0	0	0	0	0	0	0
22.5	0	0	1e-05	0.01199	0.18456	0.46591	0.28473	0.05057	0.00221	2e-05	0	0	0	0	0	0	0	0	0	0
22.55	0	0	2e-05	0.01191	0.17857	0.46594	0.28904	0.05222	0.00228	2e-05	0	0	0	0	0	0	0	0	0	0
22.6	0	0	2e-05	0.01196	0.17638	0.46457	0.29174	0.05291	0.00239	3e-05	0	0	0	0	0	0	0	0	0	0
22.65	0	0	2e-05	0.01098	0.16981	0.46152	0.29931	0.0554	0.00293	3e-05	0	0	0	0	0	0	0	0	0	0
22.7	0	0	3e-05	0.00995	0.16955	0.45833	0.3011	0.05827	0.00273	4e-05	0	0	0	0	0	0	0	0	0	0
22.75	0	0	3e-05	0.00969	0.16211	0.45471	0.30993	0.06054	0.00297	2e-05	0	0	0	0	0	0	0	0	0	0
22.8	0	0	1e-05	0.00883	0.16083	0.45464	0.30999	0.06262	0.003	8e-05	0	0	0	0	0	0	0	0	0	0
22.85	0	0	3e-05	0.0089	0.15704	0.45321	0.31361	0.06335	0.00379	7e-05	0	0	0	0	0	0	0	0	0	0
22.9	0	0	0	0.0082	0.15358	0.44903	0.31986	0.06571	0.00351	0.00011	0	0	0	0	0	0	0	0	0	0
22.95	0	0	2e-05	0.00794	0.14982	0.44528	0.32442	0.06879	0.0037	3e-05	0	0	0	0	0	0	0	0	0	0
23	0	0	2e-05	0.00755	0.14791	0.44119	0.32915	0.06992	0.00419	6e-05	1e-05	0	0	0	0	0	0	0	0	0
23.05	0	0	2e-05	0.00664	0.1417	0.4377	0.33601	0.07358	0.00427	8e-05	0	0	0	0	0	0	0	0	0	0
23.1	0	0	2e-05	0.00646	0.13965	0.43638	0.33758	0.07531	0.00451	9e-05	0	0	0	0	0	0	0	0	0	0
23.15	0	0	0	0.00622	0.13733	0.43439	0.3395	0.07801	0.00446	8e-05	1e-05	0	0	0	0	0	0	0	0	0
23.2	0	0	1e-05	0.00546	0.13306	0.42884	0.34674	0.08056	0.00526	7e-05	0	0	0	0	0	0	0	0	0	0
23.25	0	0	1e-05	0.00503	0.13014	0.42553	0.35155	0.08216	0.00545	0.00013	0	0	0	0	0	0	0	0	0	0
23.3	0	0	0	0.00502	0.1283	0.42384	0.35338	0.08332	0.00602	0.00012	0	0	0	0	0	0	0	0	0	0
23.35	0	0	0	0.00468	0.1225	0.42098	0.3574	0.08783	0.00649	0.00011	1e-05	0	0	0	0	0	0	0	0	0
23.4	0	0	1e-05	0.0048	0.12065	0.41589	0.36211	0.09	0.00636	0.00017	1e-05	0	0	0	0	0	0	0	0	0
23.45	0	0	0	0.00477	0.11849	0.41212	0.3636	0.09402	0.00688	0.00011	1e-05	0	0	0	0	0	0	0	0	0
23.5	0	0	1e-05	0.00394	0.1145	0.40997	0.36877	0.09533	0.00731	0.00017	0	0	0	0	0	0	0	0	0	0
23.55	0	0	1e-05	0.00394	0.11385	0.40305	0.37311	0.09776	0.00811	0.00016	1e-05	0	0	0	0	0	0	0	0	0
23.6	0	0	0	0.00359	0.10904	0.39963	0.37723	0.10181	0.00845	0.00025	0	0	0	0	0	0	0	0	0	0
23.65	0	0	0	0.00339	0.10807	0.39759	0.37998	0.10278	0.00803	0.00015	1e-05	0	0	0	0	0	0	0	0	0
23.7	0	0	0	0.00325	0.1032	0.39473	0.38364	0.1058	0.00928	0.0001	0	0	0	0	0	0	0	0	0	0
23.75	0	0	1e-05	0.00292	0.10309	0.38997	0.38534	0.10954	0.00883	0.0003	0	0	0	0	0	0	0	0	0	0
23.8	0	0	2e-05	0.00267	0.09939	0.38297	0.39158	0.11335	0.00981	0.0002	1e-05	0	0	0	0	0	0	0	0	0
23.85	0	0	1e-05	0.00247	0.09613	0.38231	0.39366	0.11473	0.01045	0.00024	0	0	0	0	0	0	0	0	0	0
23.9	0	0	1e-05	0.00251	0.09343	0.38209	0.39471	0.11709	0.00988	0.00028	0	0	0	0	0	0	0	0	0	0
23.95	0	0	0	0.00204	0.0923	0.37055	0.4018	0.12194	0.01111	0.00026	0	0	0	0	0	0	0	0	0	0
24	0	0	1e-05	0.00222	0.09003	0.37038	0.40106	0.12367	0.01228	0.00034	1e-05	0	0	0	0	0	0	0	0	0
24.05	0	0	0	0.00189	0.08847	0.3636	0.40597	0.1273	0.0124	0.00037	0	0	0	0	0	0	0	0	0	0
24.1	0	0	0	0.00172	0.08426	0.36067	0.40833	0.13137	0.01326	0.00039	0	0	0	0	0	0	0	0	0	0
24.15	0	0	0	0.00168	0.08207	0.35364	0.41393	0.13496	0.01334	0.00038	0	0	0	0	0	0	0	0	0	0
24.2	0	0	0	0.0014	0.0796	0.35214	0.41594	0.1365	0.01402	0.0004	0	0	0	0	0	0	0	0	0	0
24.25	0	0	0	0.00184	0.07757	0.34866	0.41715	0.13916	0.01515	0.00047	0	0	0	0	0	0	0	0	0	0
24.3	0	0	0	0.00143	0.07478	0.3429	0.4195	0.14499	0.01601	0.00038	1e-05	0	0	0	0	0	0	0	0	0
24.35	0	0	0	0.00129	0.0744	0.33599	0.42433	0.14755	0.01588	0.00056	0	0	0	0	0	0	0	0	0	0
24.4	0	0	0	0.00121	0.07192	0.33806	0.42184	0.14908	0.01726	0.00062	1e-05	0	0	0	0	0	0	0	0	0
24.45	0	0	0	0.00121	0.06846	0.32749	0.4287	0.15602	0.01744	0.00067	1e-05	0	0	0	0	0	0	0	0	0
24.5	0	0	0	0.00115	0.06811	0.32483	0.42997	0.15656	0.01883	0.00055	0	0	0	0	0	0	0	0	0	0
24.55	0	0	0	0.00085	0.0657	0.32218	0.43041	0.16125	0.01887	0.00072	2e-05	0	0	0	0	0	0	0	0	0
24.6	0	0	0	0.0009	0.06167	0.31768	0.43545	0.16288	0.02054	0.00087	1e-05	0	0	0	0	0	0	0	0	0
24.65	0	0	0	0.00083	0.06126	0.31395	0.4343	0.16819	0.02078	0.00069	0	0	0	0	0	0	0	0	0	0
24.7	0	0	0	0.00078	0.05947	0.30815	0.4365	0.17223	0.0222	0.00067	0	0	0	0	0	0	0	0	0	0
24.75	0	0	0	0.00086	0.058	0.30757	0.43413	0.1758	0.02281	0.00083	0	0	0	0	0	0	0	0	0	0
24.8	0	0	0	0.00074	0.05717	0.3006	0.43928	0.17781	0.02343	0.00096	1e-05	0	0	0	0	0	0	0	0	0
24.85	0	0	0	0.00072	0.05554	0.29465	0.44156	0.18171	0.02501	0.0008	1e-05	0	0	0	0	0	0	0	0	0
24.9	0	0	0	0.00065	0.05381	0.28986	0.44192	0.18662	0.02601	0.00108	5e-05	0	0	0	0	0	0	0	0	0
24.95	0	0	0	0.00054	0.05067	0.2868	0.44309	0.18981	0.02799	0.00109	1e-05	0	0	0	0	0	0	0	0	0
25	0	0	0	0.00054	0.04907	0.28218	0.44262	0.19604	0.02854	0.00099	2e-05	0	0	0	0	0	0	0	0	0
25.05	0	0	0	0.00056	0.04784	0.28182	0.44487	0.19484	0.02897	0.00109	1e-05	0	0	0	0	0	0	0	0	0
25.1	0	0	0	0.0005	0.0461	0.27494	0.44316	0.20376	0.03028	0.00125	1e-05	0	0	0	0	0	0	0	0	0
25.15	0	0	0	0.00046	0.04545	0.27089	0.44503	0.20635	0.03042	0.00134	6e-05	0	0	0	0	0	0	0	0	0
25.2	0	0	0	0.00039	0.04302	0.26916	0.44357	0.21085	0.0316	0.00137	4e-05	0	0	0	0	0	0	0	0	0
25.25	0	0	0	0.00041	0.04249	0.26245	0.44695	0.21163	0.03434	0.00172	1e-05	0	0	0	0	0	0	0	0	0
25.3	0	0	0	0.00036	0.03981	0.25746	0.44788	0.21781	0.03511	0.00155	2e-05	0	0	0	0	0	0	0	0	0
25.35	0	0	0	0.00025	0.03918	0.25744	0.44363	0.22138	0.03627	0.00179	6e-05	0	0	0	0	0	0	0	0	0
25.4	0	0	0	0.00025	0.03834	0.25126	0.44238	0.22806	0.03782	0.00186	3e-05	0	0	0	0	0	0	0	0	0
25.45	0	0	0	0.00029	0.03612	0.24395	0.44645	0.23167	0.03965	0.00182	5e-05	0	0	0	0	0	0	0	0	0
25.5	0	0	0	0.0003	0.03628	0.24222	0.44733	0.23032	0.04142	0.00211	2e-05	0	0	0	0	0	0	0	0	0
25.55	0	0	0	0.00029	0.03372	0.23834	0.44719	0.2369	0.04159	0.00195	2e-05	0	0	0	0	0	0	0	0	0
25.6	0	0	0	0.0003	0.03314	0.23263	0.4467	0.24165	0.0432	0.00237	1e-05	0	0	0	0	0	0	0	0	0
25.65	0	0	0	0.00027	0.03223	0.23302	0.44347	0.24369	0.04459	0.00266	7e-05	0	0	0	0	0	0	0	0	0
25.7	0	0	0	0.00016	0.03096	0.22591	0.44429	0.24932	0.04654	0.00279	3e-05	0	0	0	0	0	0	0	0	0
25.75	0	0	0	0.00015	0.03014	0.22215	0.44618	0.25045	0.04817	0.0027	6e-05	0	0	0	0	0	0	0	0	0
25.8	0	0	0	0.00022	0.02896	0.22108	0.43901	0.25827	0.04936	0.00307	3e-05	0	0	0	0	0	0	0	0	0
25.85	0	0	0	0.0002	0.0272	0.21773	0.43902	0.26081	0.05189	0.00307	8e-05	0	0	0	0	0	0	0	0	0
25.9	0	0	0	0.0002	0.0274	0.21434	0.43859	0.26261	0.05362	0.00318	6e-05	0	0	0	0	0	0	0	0	0
25.95	0	0	0	0.00017	0.02531	0.20802	0.43782	0.26921	0.056	0.00342	5e-05	0	0	0	0	0	0	0	0	0
26	0	0	0	0.0002	0.02473	0.20355	0.43752	0.27265	0.05763	0.00362	0.0001	0	0	0	0	0	0	0	0	0
26.05	0	0	0	0.00017	0.02369	0.20393	0.43599	0.27396	0.05808	0.00409	9e-05	0	0	0	0	0	0	0	0	0
26.1	0	0	0	8e-05	0.02253	0.19891	0.43466	0.27886	0.06072	0.00412	0.00011	1e-05	0	0	0	0	0	0	0	0
26.15	0	0	0	8e-05	0.02267	0.19254	0.43339	0.28488	0.06179	0.00454	0.00011	0	0	0	0	0	0	0	0	0
26.2	0	0	0	0.00013	0.02126	0.18844	0.43465	0.28796	0.06298	0.00451	7e-05	0	0	0	0	0	0	0	0	0
26.25	0	0	0	0.00012	0.02057	0.18757	0.42972	0.29052	0.06662	0.00477	0.0001	1e-05	0	0	0	0	0	0	0	0
26.3	0	0	0	0.00015	0.02118	0.18302	0.42766	0.29677	0.06621	0.00492	7e-05	2e-05	0	0	0	0	0	0	0	0
26.35	0	0	0	0.0001	0.01855	0.17793	0.42622	0.30154	0.07034	0.00517	0.00015	0	0	0	0	0	0	0	0	0
26.4	0	0	0	7e-05	0.01883	0.17286	0.42492	0.30439	0.07315	0.00554	0.00024	0	0	0	0	0	0	0	0	0
26.45	0	0	0	0.0001	0.01759	0.17414	0.42023	0.30733	0.07433	0.00613	0.00014	1e-05	0	0	0	0	0	0	0	0
26.5	0	0	0	8e-05	0.01665	0.16891	0.41926	0.31252	0.07579	0.00657	0.00022	0	0	0	0	0	0	0	0	0
26.55	0	0	0	0.00011	0.01645	0.16653	0.4181	0.31397	0.07778	0.00695	0.00011	0	0	0	0	0	0	0	0	0
26.6	0	0	0	0.0001	0.01631	0.16426	0.41563	0.31658	0.07956	0.00731	0.00024	1e-05	0	0	0	0	0	0	0	0
26.65	0	0	0	0.00013	0.01477	0.16111	0.41234	0.32103	0.08322	0.00718	0.00022	0	0	0	0	0	0	0	0	0
26.7	0	0	0	3e-05	0.01458	0.15495	0.41079	0.32576	0.08632	0.00733	0.00024	0	0	0	0	0	0	0	0	0
26.75	0	0	0	0.00015	0.01335	0.15417	0.40841	0.32748	0.08841	0.00784	0.00019	0	0	0	0	0	0	0	0	0
26.8	0	0	0	0.00014	0.01306	0.15061	0.40619	0.33328	0.08804	0.00848	0.0002	0	0	0	0	0	0	0	0	0
26.85	0	0	0	7e-05	0.01354	0.14646	0.40233	0.33548	0.09278	0.00913	0.00021	0	0	0	0	0	0	0	0	0
26.9	0	0	0	7e-05	0.01194	0.14459	0.39901	0.3389	0.09589	0.00929	0.0003	1e-05	0	0	0	0	0	0	0	0
26.95	0	0	0	2e-05	0.0113	0.13957	0.39882	0.34412	0.09685	0.00907	0.00024	1e-05	0	0	0	0	0	0	0	0
27	0	0	0	3e-05	0.01083	0.13839	0.39432	0.34663	0.0992	0.01033	0.00027	0	0	0	0	0	0	0	0	0
27.05	0	0	0	5e-05	0.01027	0.13388	0.39313	0.34879	0.10353	0.01007	0.00028	0	0	0	0	0	0	0	0	0
27.1	0	0	0	1e-05	0.01003	0.12949	0.39138	0.35258	0.10519	0.01088	0.00044	0	0	0	0	0	0	0	0	0
27.15	0	0	0	1e-05	0.00985	0.1293	0.38734	0.35538	0.1062	0.01155	0.00037	0	0	0	0	0	0	0	0	0
27.2	0	0	0	1e-05	0.00903	0.1257	0.38544	0.35822	0.10908	0.01205	0.00046	1e-05	0	0	0	0	0	0	0	0
27.25	0	0	0	3e-05	0.00951	0.12279	0.38261	0.3605	0.11184	0.01227	0.00044	1e-05	0	0	0	0	0	0	0	0
27.3	0	0	0	1e-05	0.00922	0.12148	0.37867	0.36103	0.1164	0.01271	0.00047	1e-05	0	0	0	0	0	0	0	0
27.35	0	0	0	6e-05	0.00824	0.11757	0.37421	0.36704	0.11896	0.01341	0.00051	0	0	0	0	0	0	0	0	0
27.4	0	0	0	2e-05	0.00732	0.11604	0.37249	0.36753	0.12225	0.01379	0.00055	1e-05	0	0	0	0	0	0	0	0
27.45	0	0	0	1e-05	0.00743	0.11172	0.3686	0.37209	0.12411	0.01545	0.00057	2e-05	0	0	0	0	0	0	0	0
27.5	0	0	0	4e-05	0.0071	0.11131	0.36359	0.37526	0.12696	0.01519	0.00054	1e-05	0	0	0	0	0	0	0	0
27.55	0	0	0	0	0.00643	0.10776	0.36102	0.37726	0.13146	0.01543	0.00061	3e-05	0	0	0	0	0	0	0	0
27.6	0	0	0	1e-05	0.00631	0.10474	0.35781	0.38004	0.13351	0.01682	0.00074	2e-05	0	0	0	0	0	0	0	0
27.65	0	0	0	0	0.00612	0.10208	0.35411	0.38335	0.13556	0.01793	0.00084	1e-05	0	0	0	0	0	0	0	0
27.7	0	0	0	0	0.00531	0.10002	0.35301	0.38528	0.1378	0.01779	0.00077	2e-05	0	0	0	0	0	0	0	0
27.75	0	0	0	0	0.00536	0.09781	0.35022	0.38488	0.14137	0.01946	0.00089	1e-05	0	0	0	0	0	0	0	0
27.8	0	0	0	2e-05	0.00568	0.0952	0.34236	0.38973	0.14537	0.02068	0.00095	1e-05	0	0	0	0	0	0	0	0
27.85	0	0	0	3e-05	0.00513	0.09261	0.33944	0.3914	0.14918	0.02127	0.00094	0	0	0	0	0	0	0	0	0
27.9	0	0	0	1e-05	0.00445	0.09148	0.33796	0.39092	0.15301	0.02114	0.00103	0	0	0	0	0	0	0	0	0
27.95	0	0	0	1e-05	0.00448	0.08871	0.33212	0.39565	0.15438	0.02355	0.00107	3e-05	0	0	0	0	0	0	0	0
28	0	0	0	0	0.00413	0.08609	0.33068	0.39716	0.15828	0.02236	0.00129	1e-05	0	0	0	0	0	0	0	0
28.05	0	0	0	2e-05	0.00403	0.08597	0.32573	0.3991	0.16082	0.02324	0.00105	4e-05	0	0	0	0	0	0	0	0
28.1	0	0	0	1e-05	0.00396	0.08247	0.32355	0.39873	0.16544	0.02435	0.00147	2e-05	0	0	0	0	0	0	0	0
28.15	0	0	0	1e-05	0.00365	0.08106	0.31929	0.40214	0.16603	0.0266	0.0012	2e-05	0	0	0	0	0	0	0	0
28.2	0	0	0	1e-05	0.00369	0.07894	0.31744	0.40002	0.17114	0.02738	0.00132	6e-05	0	0	0	0	0	0	0	0
28.25	0	0	0	0	0.00331	0.07639	0.31332	0.40435	0.17364	0.02744	0.00151	3e-05	1e-05	0	0	0	0	0	0	0
28.3	0	0	0	1e-05	0.00338	0.07451	0.31085	0.40405	0.177	0.02842	0.00175	2e-05	1e-05	0	0	0	0	0	0	0
28.35	0	0	0	0	0.00264	0.07234	0.30364	0.40696	0.18252	0.03024	0.00164	2e-05	0	0	0	0	0	0	0	0
28.4	0	0	0	0	0.00309	0.07055	0.30157	0.40896	0.18308	0.03085	0.00185	5e-05	0	0	0	0	0	0	0	0
28.45	0	0	0	1e-05	0.00284	0.06864	0.29917	0.40581	0.18907	0.03248	0.00195	3e-05	0	0	0	0	0	0	0	0
28.5	0	0	0	0	0.00238	0.06669	0.2935	0.41223	0.19006	0.033	0.0021	4e-05	0	0	0	0	0	0	0	0
28.55	0	0	0	0	0.00248	0.065	0.28977	0.41189	0.19473	0.03404	0.00203	6e-05	0	0	0	0	0	0	0	0
28.6	0	0	0	1e-05	0.00242	0.06457	0.28748	0.41301	0.19577	0.03472	0.00199	3e-05	0	0	0	0	0	0	0	0
28.65	0	0	0	1e-05	0.00216	0.06218	0.28496	0.41159	0.20065	0.03603	0.00237	5e-05	0	0	0	0	0	0	0	0
28.7	0	0	0	0	0.00222	0.05923	0.27685	0.41516	0.20576	0.03849	0.00224	5e-05	0	0	0	0	0	0	0	0
28.75	0	0	0	0	0.00185	0.05788	0.27716	0.41509	0.20815	0.03715	0.00267	5e-05	0	0	0	0	0	0	0	0
28.8	0	0	0	1e-05	0.00191	0.05771	0.2727	0.41581	0.20911	0.04013	0.00252	0.0001	0	0	0	0	0	0	0	0
28.85	0	0	0	0	0.0016	0.05522	0.27015	0.41513	0.21446	0.04064	0.00274	6e-05	0	0	0	0	0	0	0	0
28.9	0	0	0	0	0.00181	0.05391	0.26651	0.41695	0.21577	0.04191	0.00305	9e-05	0	0	0	0	0	0	0	0
28.95	0	0	0	1e-05	0.00151	0.05137	0.26127	0.4182	0.2208	0.04347	0.0032	0.00017	0	0	0	0	0	0	0	0
29	0	0	0	1e-05	0.00153	0.05079	0.25656	0.41621	0.22661	0.04477	0.00345	7e-05	0	0	0	0	0	0	0	0
29.05	0	0	0	0	0.0013	0.0484	0.25507	0.41969	0.22529	0.04663	0.00356	6e-05	0	0	0	0	0	0	0	0
29.1	0	0	0	0	0.00147	0.04797	0.25285	0.41488	0.2314	0.04752	0.00383	8e-05	0	0	0	0	0	0	0	0
29.15	0	0	0	0	0.00119	0.04747	0.2466	0.41613	0.23428	0.0505	0.00371	0.00012	0	0	0	0	0	0	0	0
29.2	0	0	0	2e-05	0.00109	0.04597	0.24358	0.41603	0.23766	0.05159	0.00392	0.00013	1e-05	0	0	0	0	0	0	0
29.25	0	0	0	0	0.00116	0.04437	0.23722	0.41567	0.24384	0.05349	0.00418	7e-05	0	0	0	0	0	0	0	0
29.3	0	0	0	0	0.00106	0.04274	0.23611	0.41542	0.2452	0.05496	0.00441	0.0001	0	0	0	0	0	0	0	0
29.35	0	0	0	1e-05	0.00107	0.04167	0.23366	0.41358	0.24883	0.05641	0.00463	0.00014	0	0	0	0	0	0	0	0
29.4	0	0	0	0	0.00086	0.04116	0.22833	0.41484	0.25241	0.05699	0.0053	0.00011	0	0	0	0	0	0	0	0
29.45	0	0	0	1e-05	0.00073	0.03943	0.22425	0.41551	0.25526	0.05917	0.00545	0.00019	0	0	0	0	0	0	0	0
29.5	0	0	0	1e-05	0.00083	0.03803	0.22084	0.41389	0.25913	0.06173	0.00534	0.0002	0	0	0	0	0	0	0	0
29.55	0	0	0	1e-05	0.00086	0.03656	0.21991	0.41267	0.26139	0.06334	0.00507	0.00018	1e-05	0	0	0	0	0	0	0
29.6	0	0	0	0	0.00064	0.0354	0.21639	0.41065	0.26788	0.06281	0.00605	0.00018	0	0	0	0	0	0	0	0
29.65	0	0	0	0	0.00074	0.03446	0.21136	0.41018	0.2704	0.06602	0.00662	0.00022	0	0	0	0	0	0	0	0
29.7	0	0	0	0	0.00055	0.03408	0.20742	0.4096	0.27257	0.06883	0.0067	0.00024	1e-05	0	0	0	0	0	0	0
29.75	0	0	0	0	0.00057	0.03289	0.20586	0.409	0.27392	0.07108	0.00639	0.00029	0	0	0	0	0	0	0	0
29.8	0	0	0	0	0.0005	0.03032	0.20305	0.40622	0.27979	0.07273	0.00715	0.00024	0	0	0	0	0	0	0	0
29.85	0	0	0	1e-05	0.00065	0.03019	0.19852	0.40647	0.28303	0.073	0.00786	0.00027	0	0	0	0	0	0	0	0
29.9	0	0	0	0	0.00058	0.02922	0.19664	0.40423	0.28453	0.07666	0.00786	0.00028	0	0	0	0	0	0	0	0
29.95	0	0	0	0	0.00041	0.02755	0.19245	0.4011	0.29311	0.07737	0.0077	0.00031	0	0	0	0	0	0	0	0
30	0	0	0	0	0.00035	0.02756	0.18829	0.4028	0.29358	0.0789	0.00819	0.00033	0	0	0	0	0	0	0	0
30.05	0	0	0	0	0.00039	0.02793	0.18722	0.39903	0.29441	0.08201	0.00869	0.00032	0	0	0	0	0	0	0	0
30.1	0	0	0	0	0.00037	0.02591	0.18496	0.39538	0.29835	0.08529	0.00936	0.00037	1e-05	0	0	0	0	0	0	0
30.15	0	0	0	0	0.00038	0.02558	0.17971	0.39974	0.29815	0.08626	0.00986	0.00031	1e-05	0	0	0	0	0	0	0
30.2	0	0	0	0	0.00034	0.02356	0.17666	0.39292	0.30739	0.08851	0.01013	0.00047	2e-05	0	0	0	0	0	0	0
30.25	0	0	0	0	0.00031	0.02291	0.17392	0.39443	0.30802	0.08974	0.01032	0.00035	0	0	0	0	0	0	0	0
30.3	0	0	0	0	0.00034	0.02219	0.17191	0.38915	0.3125	0.09293	0.01046	0.00049	3e-05	0	0	0	0	0	0	0
30.35	0	0	0	0	0.00032	0.02267	0.16527	0.3904	0.31382	0.09524	0.01163	0.00065	0	0	0	0	0	0	0	0
30.4	0	0	0	0	0.00026	0.02119	0.16504	0.3859	0.3161	0.09873	0.0122	0.00058	0	0	0	0	0	0	0	0
30.45	0	0	0	0	0.0003	0.0201	0.16116	0.38497	0.3201	0.10026	0.0124	0.0007	1e-05	0	0	0	0	0	0	0
30.5	0	0	0	0	0.00021	0.01949	0.15773	0.38315	0.32454	0.10152	0.01281	0.00054	1e-05	0	0	0	0	0	0	0
30.55	0	0	0	0	0.00025	0.01976	0.15733	0.38128	0.32544	0.10225	0.01313	0.00055	1e-05	0	0	0	0	0	0	0
30.6	0	0	0	0	0.00018	0.01842	0.15304	0.37866	0.32732	0.10839	0.01342	0.00057	0	0	0	0	0	0	0	0
30.65	0	0	0	0	0.0002	0.01761	0.14778	0.3776	0.33293	0.10823	0.01499	0.00066	0	0	0	0	0	0	0	0
30.7	0	0	0	0	0.00015	0.01651	0.14681	0.37168	0.33575	0.11295	0.01538	0.00076	1e-05	0	0	0	0	0	0	0
30.75	0	0	0	0	0.00025	0.01616	0.14314	0.37194	0.3382	0.11377	0.01572	0.0008	2e-05	0	0	0	0	0	0	0
30.8	0	0	0	0	0.00015	0.01596	0.14143	0.36778	0.33885	0.11815	0.01673	0.00094	1e-05	0	0	0	0	0	0	0
30.85	0	0	0	0	0.00018	0.01548	0.13873	0.36625	0.3413	0.12039	0.01667	0.00099	1e-05	0	0	0	0	0	0	0
30.9	0	0	0	0	0.00013	0.01444	0.13383	0.36467	0.34478	0.12354	0.01774	0.00086	1e-05	0	0	0	0	0	0	0
30.95	0	0	0	0	0.00013	0.01437	0.13364	0.36177	0.34533	0.12557	0.01793	0.00122	4e-05	0	0	0	0	0	0	0
31	0	0	0	0	0.00016	0.01363	0.12869	0.36147	0.34753	0.12863	0.0187	0.00118	1e-05	0	0	0	0	0	0	0
31.05	0	0	0	0	0.00014	0.01372	0.12715	0.3562	0.35118	0.13078	0.01954	0.00125	4e-05	0	0	0	0	0	0	0
31.1	0	0	0	0	7e-05	0.01301	0.12484	0.3508	0.35552	0.13436	0.02033	0.00102	5e-05	0	0	0	0	0	0	0
31.15	0	0	0	0	9e-05	0.01212	0.12419	0.351	0.35536	0.13544	0.02049	0.00127	4e-05	0	0	0	0	0	0	0
31.2	0	0	0	0	8e-05	0.01154	0.11998	0.34792	0.3572	0.14025	0.02157	0.00145	1e-05	0	0	0	0	0	0	0
31.25	0	0	0	0	0.00014	0.01154	0.11867	0.34295	0.36109	0.14233	0.02211	0.00116	1e-05	0	0	0	0	0	0	0
31.3	0	0	0	0	0.0001	0.01115	0.11466	0.34131	0.36194	0.14627	0.0234	0.00113	4e-05	0	0	0	0	0	0	0
31.35	0	0	0	0	7e-05	0.0109	0.11314	0.33778	0.36621	0.14651	0.02394	0.00142	3e-05	0	0	0	0	0	0	0
31.4	0	0	0	0	5e-05	0.0096	0.11083	0.33531	0.36839	0.14863	0.02555	0.00156	8e-05	0	0	0	0	0	0	0
31.45	0	0	0	0	6e-05	0.00974	0.10773	0.33367	0.36974	0.15285	0.02445	0.00167	9e-05	0	0	0	0	0	0	0
31.5	0	0	0	0	3e-05	0.00907	0.10498	0.33207	0.36939	0.1559	0.0267	0.00182	4e-05	0	0	0	0	0	0	0
31.55	0	0	0	0	5e-05	0.00919	0.10194	0.32808	0.37118	0.16044	0.02734	0.00174	4e-05	0	0	0	0	0	0	0
31.6	0	0	0	0	3e-05	0.00846	0.10203	0.32344	0.37346	0.16239	0.02819	0.00196	4e-05	0	0	0	0	0	0	0
31.65	0	0	0	0	4e-05	0.00798	0.09951	0.31928	0.37547	0.16622	0.02915	0.00227	8e-05	0	0	0	0	0	0	0
31.7	0	0	0	0	0.0001	0.00824	0.09638	0.31716	0.37756	0.16703	0.03124	0.00222	7e-05	0	0	0	0	0	0	0
31.75	0	0	0	0	9e-05	0.00765	0.09428	0.31653	0.37713	0.17144	0.03059	0.00225	4e-05	0	0	0	0	0	0	0
31.8	0	0	0	0	6e-05	0.00761	0.09161	0.31327	0.38033	0.1719	0.03271	0.00245	6e-05	0	0	0	0	0	0	0
31.85	0	0	0	0	3e-05	0.0077	0.08998	0.30618	0.38059	0.17849	0.0344	0.00254	9e-05	0	0	0	0	0	0	0
31.9	0	0	0	0	0.00011	0.00652	0.0874	0.30595	0.38152	0.18031	0.03561	0.00252	6e-05	0	0	0	0	0	0	0
31.95	0	0	0	0	2e-05	0.00639	0.08498	0.30149	0.38463	0.18341	0.03613	0.0029	5e-05	0	0	0	0	0	0	0
32	0	0	0	0	3e-05	0.00627	0.08277	0.29909	0.38366	0.18756	0.03753	0.00298	0.00011	0	0	0	0	0	0	0
32.05	0	0	0	0	1e-05	0.00611	0.08292	0.29583	0.38364	0.19026	0.03806	0.00309	8e-05	0	0	0	0	0	0	0
32.1	0	0	0	0	6e-05	0.006	0.08013	0.28925	0.38824	0.19264	0.04035	0.00326	7e-05	0	0	0	0	0	0	0
32.15	0	0	0	0	2e-05	0.00588	0.07787	0.28832	0.39084	0.19299	0.04081	0.00317	0.0001	0	0	0	0	0	0	0
32.2	0	0	0	0	1e-05	0.00539	0.07668	0.28529	0.38949	0.19731	0.04204	0.0036	0.00019	0	0	0	0	0	0	0
32.25	0	0	0	0	1e-05	0.00536	0.07392	0.28374	0.38987	0.2016	0.04201	0.00338	0.00011	0	0	0	0	0	0	0
32.3	0	0	0	0	5e-05	0.00497	0.07303	0.27875	0.3896	0.20513	0.04459	0.00375	0.00013	0	0	0	0	0	0	0
32.35	0	0	0	0	2e-05	0.0044	0.07006	0.27473	0.39008	0.21033	0.04585	0.00439	0.00014	0	0	0	0	0	0	0
32.4	0	0	0	0	3e-05	0.00413	0.06847	0.27174	0.39159	0.21242	0.04746	0.00406	9e-05	1e-05	0	0	0	0	0	0
32.45	0	0	0	0	0	0.00396	0.06839	0.27118	0.38948	0.21579	0.04696	0.00409	0.00015	0	0	0	0	0	0	0
32.5	0	0	0	0	0	0.00414	0.06631	0.26873	0.3906	0.2158	0.04996	0.00433	0.00012	1e-05	0	0	0	0	0	0
32.55	0	0	0	0	4e-05	0.00396	0.0637	0.26311	0.3943	0.21815	0.05167	0.00487	0.0002	0	0	0	0	0	0	0
32.6	0	0	0	0	3e-05	0.00383	0.06258	0.26061	0.38969	0.22385	0.05387	0.0054	0.00013	1e-05	0	0	0	0	0	0
32.65	0	0	0	0	0	0.00365	0.06094	0.25657	0.3928	0.22578	0.05471	0.00535	0.0002	0	0	0	0	0	0	0
32.7	0	0	0	0	1e-05	0.00335	0.06053	0.25187	0.39275	0.23057	0.05517	0.00556	0.00019	0	0	0	0	0	0	0
32.75	0	0	0	0	0	0.00308	0.05766	0.24953	0.39187	0.23398	0.05771	0.00589	0.00028	0	0	0	0	0	0	0
32.8	0	0	0	0	1e-05	0.00343	0.05581	0.2462	0.39271	0.23657	0.05895	0.00595	0.00036	1e-05	0	0	0	0	0	0
32.85	0	0	0	0	0	0.00265	0.05547	0.24463	0.39249	0.23936	0.05866	0.00646	0.00026	2e-05	0	0	0	0	0	0
32.9	0	0	0	0	1e-05	0.0025	0.05364	0.24391	0.39021	0.23984	0.06304	0.00651	0.00034	0	0	0	0	0	0	0
32.95	0	0	0	0	1e-05	0.00281	0.05179	0.23866	0.39217	0.24293	0.06455	0.0068	0.00028	0	0	0	0	0	0	0
33	0	0	0	0	1e-05	0.00244	0.05025	0.23508	0.39171	0.24928	0.06386	0.00696	0.0004	1e-05	0	0	0	0	0	0
33.05	0	0	0	0	2e-05	0.00219	0.04992	0.22935	0.39028	0.25327	0.06758	0.00701	0.00038	0	0	0	0	0	0	0
33.1	0	0	0	0	0	0.00213	0.04834	0.22866	0.39125	0.25392	0.06774	0.00774	0.00022	0	0	0	0	0	0	0
33.15	0	0	0	0	0	0.00223	0.04706	0.22481	0.38959	0.25646	0.07143	0.00803	0.00036	3e-05	0	0	0	0	0	0
33.2	0	0	0	0	1e-05	0.00189	0.04605	0.22168	0.38829	0.26125	0.07171	0.00861	0.0005	1e-05	0	0	0	0	0	0
33.25	0	0	0	0	1e-05	0.00214	0.04448	0.21866	0.38898	0.2618	0.07456	0.00891	0.00046	0	0	0	0	0	0	0
33.3	0	0	0	0	0	0.00177	0.04405	0.2135	0.38815	0.26676	0.0761	0.00908	0.00058	1e-05	0	0	0	0	0	0
33.35	0	0	0	0	2e-05	0.00183	0.04181	0.21182	0.38696	0.26829	0.07859	0.0102	0.00047	1e-05	0	0	0	0	0	0
33.4	0	0	0	0	0	0.00145	0.04004	0.20952	0.38547	0.2736	0.0796	0.00987	0.00044	1e-05	0	0	0	0	0	0
33.45	0	0	0	0	0	0.00133	0.0411	0.20537	0.38308	0.27596	0.08228	0.01035	0.00052	1e-05	0	0	0	0	0	0
33.5	0	0	0	0	0	0.00172	0.03896	0.19982	0.38464	0.28057	0.08338	0.01038	0.00052	1e-05	0	0	0	0	0	0
33.55	0	0	0	0	0	0.00155	0.03855	0.19747	0.38206	0.2804	0.08765	0.0118	0.00052	0	0	0	0	0	0	0
33.6	0	0	0	0	0	0.00131	0.03651	0.19919	0.3802	0.28436	0.08614	0.01163	0.00065	1e-05	0	0	0	0	0	0
33.65	0	0	0	0	1e-05	0.00119	0.03532	0.19498	0.38006	0.2865	0.08919	0.01205	0.00068	2e-05	0	0	0	0	0	0
33.7	0	0	0	0	0	0.00111	0.03436	0.18997	0.37726	0.29026	0.09364	0.01275	0.00064	1e-05	0	0	0	0	0	0
33.75	0	0	0	0	1e-05	0.00134	0.03285	0.18679	0.3783	0.29312	0.094	0.01292	0.00067	0	0	0	0	0	0	0
33.8	0	0	0	0	0	0.00099	0.03256	0.18727	0.3742	0.29347	0.09675	0.01381	0.00093	2e-05	0	0	0	0	0	0
33.85	0	0	0	0	0	0.001	0.03183	0.18186	0.37289	0.29931	0.09817	0.01414	0.0008	0	0	0	0	0	0	0
33.9	0	0	0	0	1e-05	0.00123	0.03161	0.17688	0.37247	0.30126	0.10191	0.01378	0.00082	3e-05	0	0	0	0	0	0
33.95	0	0	0	0	0	0.00114	0.0298	0.17859	0.37156	0.30225	0.10096	0.01471	0.00097	2e-05	0	0	0	0	0	0
34	0	0	0	0	0	0.00078	0.02924	0.17343	0.36835	0.30724	0.10485	0.01506	0.00102	3e-05	0	0	0	0	0	0
34.05	0	0	0	0	1e-05	0.00084	0.0282	0.17068	0.36717	0.30897	0.10732	0.01578	0.00099	4e-05	0	0	0	0	0	0
34.1	0	0	0	0	0	0.00085	0.0271	0.16938	0.36617	0.30992	0.10894	0.01654	0.00105	5e-05	0	0	0	0	0	0
34.15	0	0	0	0	0	0.00102	0.02654	0.1665	0.36332	0.31206	0.11137	0.01785	0.00132	2e-05	0	0	0	0	0	0
34.2	0	0	0	0	0	0.00071	0.02583	0.16155	0.36297	0.31642	0.11318	0.01819	0.00111	4e-05	0	0	0	0	0	0
34.25	0	0	0	0	0	0.00076	0.02522	0.1596	0.36208	0.31784	0.1148	0.01852	0.00115	3e-05	0	0	0	0	0	0
34.3	0	0	0	0	0	0.00052	0.02442	0.15688	0.35746	0.31971	0.12045	0.01933	0.00121	2e-05	0	0	0	0	0	0
34.35	0	0	0	0	1e-05	0.00061	0.02376	0.15394	0.35762	0.32154	0.12131	0.01982	0.00136	3e-05	0	0	0	0	0	0
34.4	0	0	0	0	0	0.00066	0.02222	0.15114	0.35346	0.32761	0.12299	0.0206	0.00131	1e-05	0	0	0	0	0	0
34.45	0	0	0	0	1e-05	0.00051	0.02236	0.14945	0.35278	0.32488	0.12658	0.02186	0.00155	1e-05	1e-05	0	0	0	0	0
34.5	0	0	0	0	0	0.00047	0.02152	0.14383	0.34985	0.33182	0.12924	0.02157	0.00167	3e-05	0	0	0	0	0	0
34.55	0	0	0	0	0	0.00046	0.02159	0.14406	0.34665	0.33183	0.13142	0.02232	0.00163	4e-05	0	0	0	0	0	0
34.6	0	0	0	0	0	0.00048	0.02007	0.14069	0.3461	0.33422	0.13387	0.02271	0.00181	5e-05	0	0	0	0	0	0
34.65	0	0	0	0	0	0.00052	0.01935	0.13804	0.34267	0.33609	0.13733	0.02406	0.00187	7e-05	0	0	0	0	0	0
34.7	0	0	0	0	0	0.00044	0.01832	0.13674	0.34064	0.33982	0.13729	0.02482	0.00189	4e-05	0	0	0	0	0	0
34.75	0	0	0	0	0	0.0005	0.01863	0.13341	0.33775	0.3409	0.14038	0.02625	0.00212	6e-05	0	0	0	0	0	0
34.8	0	0	0	0	0	0.00031	0.018	0.13081	0.33429	0.34289	0.14409	0.02741	0.00212	8e-05	0	0	0	0	0	0
34.85	0	0	0	0	0	0.00044	0.01737	0.12865	0.33218	0.34372	0.14697	0.02843	0.00217	7e-05	0	0	0	0	0	0
34.9	0	0	0	0	0	0.00056	0.01679	0.12746	0.32938	0.34545	0.14963	0.02828	0.0024	5e-05	0	0	0	0	0	0
34.95	0	0	0	0	0	0.00035	0.01591	0.12278	0.32982	0.34712	0.152	0.02962	0.00229	0.00011	0	0	0	0	0	0
35	0	0	0	0	0	0.00029	0.01634	0.12056	0.32667	0.34731	0.15609	0.02986	0.00279	9e-05	0	0	0	0	0	0
35.05	0	0	0	0	0	0.00026	0.01442	0.11972	0.32066	0.35399	0.15793	0.03014	0.00278	0.0001	0	0	0	0	0	0
35.1	0	0	0	0	0	0.00021	0.01499	0.11727	0.32171	0.34948	0.16098	0.0326	0.00266	0.0001	0	0	0	0	0	0
35.15	0	0	0	0	0	0.00029	0.01409	0.11399	0.31822	0.35454	0.16296	0.03311	0.0027	0.0001	0	0	0	0	0	0
35.2	0	0	0	0	0	0.00023	0.01355	0.11053	0.31453	0.35835	0.16579	0.03374	0.00315	0.00013	0	0	0	0	0	0
35.25	0	0	0	0	0	0.00029	0.01325	0.10914	0.31383	0.35541	0.16928	0.03542	0.00323	0.00015	0	0	0	0	0	0
35.3	0	0	0	0	0	0.00022	0.01219	0.10771	0.30985	0.35866	0.17267	0.03538	0.00324	8e-05	0	0	0	0	0	0
35.35	0	0	0	0	0	0.00015	0.01236	0.1032	0.30685	0.36093	0.17512	0.03804	0.00318	0.00016	1e-05	0	0	0	0	0
35.4	0	0	0	0	0	0.00025	0.01168	0.10356	0.30649	0.36138	0.17517	0.03768	0.00362	0.00017	0	0	0	0	0	0
35.45	0	0	0	0	0	0.00022	0.01152	0.10162	0.30066	0.36215	0.17944	0.04055	0.00368	0.00016	0	0	0	0	0	0
35.5	0	0	0	0	1e-05	0.00021	0.01161	0.09756	0.29984	0.36244	0.18378	0.04016	0.00416	0.00023	0	0	0	0	0	0
35.55	0	0	0	0	0	0.00019	0.01068	0.09687	0.29989	0.36344	0.18296	0.04145	0.00437	0.00015	0	0	0	0	0	0
35.6	0	0	0	0	0	0.00011	0.01043	0.09396	0.29384	0.36369	0.18962	0.04406	0.00408	0.0002	1e-05	0	0	0	0	0
35.65	0	0	0	0	0	0.00015	0.01002	0.09233	0.29173	0.36559	0.19072	0.04457	0.0047	0.00019	0	0	0	0	0	0
35.7	0	0	0	0	0	6e-05	0.00902	0.09178	0.29049	0.36422	0.19433	0.04532	0.0045	0.00028	0	0	0	0	0	0
35.75	0	0	0	0	0	0.00015	0.00891	0.08981	0.28656	0.36786	0.19589	0.04584	0.00477	0.00021	0	0	0	0	0	0
35.8	0	0	0	0	0	9e-05	0.0096	0.08536	0.28382	0.36867	0.19933	0.04793	0.00489	0.00031	0	0	0	0	0	0
35.85	0	0	0	0	0	0.00011	0.00839	0.08676	0.2788	0.36835	0.2019	0.05042	0.00494	0.00033	0	0	0	0	0	0
35.9	0	0	0	0	0	6e-05	0.00831	0.08379	0.2773	0.3691	0.20468	0.05083	0.00567	0.00026	0	0	0	0	0	0
35.95	0	0	0	0	0	0.0001	0.00816	0.0811	0.27587	0.36894	0.20579	0.05388	0.00585	0.00031	0	0	0	0	0	0
36	0	0	0	0	1e-05	0.00012	0.00781	0.08022	0.27317	0.37084	0.20869	0.05297	0.00592	0.00025	0	0	0	0	0	0
36.05	0	0	0	0	0	9e-05	0.00748	0.07874	0.26889	0.36973	0.21319	0.05533	0.00624	0.00031	0	0	0	0	0	0
36.1	0	0	0	0	0	0.00011	0.00717	0.07757	0.26336	0.37348	0.21591	0.05601	0.006	0.00039	0	0	0	0	0	0
36.15	0	0	0	0	0	0.0001	0.00705	0.07462	0.26284	0.37308	0.21773	0.05752	0.00661	0.00044	1e-05	0	0	0	0	0
36.2	0	0	0	0	0	5e-05	0.00643	0.07472	0.26143	0.37034	0.21981	0.0599	0.00697	0.00034	1e-05	0	0	0	0	0
36.25	0	0	0	0	0	6e-05	0.00666	0.0715	0.25637	0.37068	0.22478	0.06209	0.00741	0.00044	1e-05	0	0	0	0	0
36.3	0	0	0	0	0	8e-05	0.00634	0.06988	0.25453	0.37275	0.22581	0.06242	0.00785	0.00034	0	0	0	0	0	0
36.35	0	0	0	0	0	6e-05	0.00627	0.06813	0.25111	0.37463	0.22752	0.06414	0.00769	0.00044	1e-05	0	0	0	0	0
36.4	0	0	0	0	0	3e-05	0.00627	0.06634	0.24991	0.37112	0.2326	0.06477	0.00851	0.00044	1e-05	0	0	0	0	0
36.45	0	0	0	0	0	2e-05	0.00581	0.06475	0.24484	0.37362	0.23479	0.06665	0.00906	0.00045	1e-05	0	0	0	0	0
36.5	0	0	0	0	0	6e-05	0.00541	0.06204	0.24206	0.37423	0.23772	0.06907	0.00888	0.00053	0	0	0	0	0	0
36.55	0	0	0	0	0	3e-05	0.00464	0.06221	0.23831	0.37139	0.2435	0.07021	0.00933	0.00037	1e-05	0	0	0	0	0
36.6	0	0	0	0	0	4e-05	0.00526	0.06087	0.2375	0.37255	0.24096	0.07218	0.01012	0.00051	1e-05	0	0	0	0	0
36.65	0	0	0	0	0	4e-05	0.00476	0.05931	0.23128	0.37337	0.24875	0.07216	0.00981	0.00049	3e-05	0	0	0	0	0
36.7	0	0	0	0	0	3e-05	0.00446	0.05817	0.22975	0.37163	0.25068	0.0753	0.00938	0.00058	2e-05	0	0	0	0	0
36.75	0	0	0	0	0	1e-05	0.00446	0.05589	0.22911	0.37066	0.25151	0.0768	0.01086	0.00069	1e-05	0	0	0	0	0
36.8	0	0	0	0	0	3e-05	0.00416	0.05372	0.22698	0.37112	0.25395	0.07748	0.01176	0.00077	3e-05	0	0	0	0	0
36.85	0	0	0	0	0	4e-05	0.00392	0.05292	0.22433	0.36847	0.25719	0.08076	0.01154	0.0008	3e-05	0	0	0	0	0
36.9	0	0	0	0	0	3e-05	0.00368	0.05342	0.21946	0.36774	0.25998	0.08287	0.01219	0.00062	1e-05	0	0	0	0	0
36.95	0	0	0	0	0	0	0.00337	0.05158	0.21647	0.36792	0.265	0.0822	0.0127	0.00074	2e-05	0	0	0	0	0
37	0	0	0	0	0	3e-05	0.00335	0.05127	0.21528	0.36429	0.26609	0.08596	0.01277	0.0009	6e-05	0	0	0	0	0
37.05	0	0	0	0	0	3e-05	0.00307	0.0486	0.20995	0.36792	0.26792	0.08801	0.01364	0.00082	4e-05	0	0	0	0	0
37.1	0	0	0	0	0	1e-05	0.00289	0.04865	0.20842	0.36523	0.26981	0.09006	0.01402	0.0009	1e-05	0	0	0	0	0
37.15	0	0	0	0	0	3e-05	0.00284	0.04594	0.2078	0.36515	0.2724	0.09117	0.01356	0.00105	6e-05	0	0	0	0	0
37.2	0	0	0	0	0	2e-05	0.00303	0.04623	0.2015	0.36445	0.2748	0.09472	0.01392	0.00131	2e-05	0	0	0	0	0
37.25	0	0	0	0	0	1e-05	0.00277	0.04364	0.2009	0.36063	0.27993	0.09545	0.0153	0.00135	2e-05	0	0	0	0	0
37.3	0	0	0	0	0	2e-05	0.00273	0.04294	0.19623	0.36517	0.27961	0.09597	0.01607	0.00124	2e-05	0	0	0	0	0
37.35	0	0	0	0	0	4e-05	0.00251	0.0409	0.19541	0.3623	0.28082	0.09967	0.01708	0.00122	5e-05	0	0	0	0	0
37.4	0	0	0	0	0	3e-05	0.00258	0.04045	0.19238	0.35848	0.28647	0.10182	0.01677	0.00096	6e-05	0	0	0	0	0
37.45	0	0	0	0	0	3e-05	0.00227	0.03983	0.19019	0.35673	0.28734	0.10457	0.01764	0.00139	1e-05	0	0	0	0	0
37.5	0	0	0	0	0	2e-05	0.00225	0.03819	0.18671	0.35766	0.29183	0.10443	0.0175	0.00135	6e-05	0	0	0	0	0
37.55	0	0	0	0	0	1e-05	0.00227	0.03721	0.18262	0.35763	0.29033	0.1094	0.01899	0.00149	5e-05	0	0	0	0	0
37.6	0	0	0	0	0	1e-05	0.00219	0.03671	0.17993	0.35261	0.29673	0.11116	0.01918	0.00145	3e-05	0	0	0	0	0
37.65	0	0	0	0	0	1e-05	0.00201	0.03531	0.17866	0.35223	0.29716	0.11297	0.02019	0.00145	1e-05	0	0	0	0	0
37.7	0	0	0	0	0	2e-05	0.00201	0.03487	0.17501	0.34829	0.30245	0.11499	0.02074	0.00154	8e-05	0	0	0	0	0
37.75	0	0	0	0	0	2e-05	0.00176	0.03383	0.17165	0.35014	0.3038	0.11559	0.02133	0.00183	5e-05	0	0	0	0	0
37.8	0	0	0	0	0	1e-05	0.00204	0.03337	0.16862	0.34789	0.30423	0.12012	0.02188	0.00179	5e-05	0	0	0	0	0
37.85	0	0	0	0	0	1e-05	0.00162	0.0325	0.1682	0.34734	0.30639	0.1191	0.02265	0.00213	6e-05	0	0	0	0	0
37.9	0	0	0	0	0	0	0.00147	0.03101	0.16555	0.34549	0.3076	0.12371	0.02323	0.00187	7e-05	0	0	0	0	0
37.95	0	0	0	0	0	2e-05	0.0018	0.02981	0.16186	0.34326	0.31116	0.12557	0.0244	0.00206	6e-05	0	0	0	0	0
38	0	0	0	0	0	0	0.00147	0.02936	0.16079	0.34112	0.31135	0.12913	0.02464	0.00207	7e-05	0	0	0	0	0
38.05	0	0	0	0	0	0	0.00131	0.02812	0.15732	0.33925	0.31469	0.13155	0.02499	0.00263	0.00014	0	0	0	0	0
38.1	0	0	0	0	0	0	0.00157	0.02852	0.15588	0.33776	0.31571	0.13181	0.02632	0.00227	0.00015	1e-05	0	0	0	0
38.15	0	0	0	0	0	1e-05	0.00121	0.0275	0.15207	0.33462	0.31897	0.13611	0.02669	0.0027	0.00012	0	0	0	0	0
38.2	0	0	0	0	0	0	0.00121	0.02617	0.14985	0.33258	0.32223	0.13839	0.02693	0.00251	0.00013	0	0	0	0	0
38.25	0	0	0	0	0	1e-05	0.00124	0.02547	0.14734	0.3321	0.32229	0.14026	0.02855	0.00264	0.0001	0	0	0	0	0
38.3	0	0	0	0	0	0	0.0009	0.02422	0.14634	0.33037	0.3247	0.14076	0.03002	0.00258	0.0001	1e-05	0	0	0	0
38.35	0	0	0	0	0	0	0.00093	0.02499	0.14112	0.32741	0.328	0.14431	0.0302	0.0029	0.00013	1e-05	0	0	0	0
38.4	0	0	0	0	0	0	0.00099	0.02378	0.13866	0.32543	0.32869	0.14639	0.03292	0.003	0.00013	1e-05	0	0	0	0
38.45	0	0	0	0	0	0	0.00085	0.02298	0.13875	0.32435	0.33088	0.14772	0.03143	0.00292	0.00012	0	0	0	0	0
38.5	0	0	0	0	0	0	0.00087	0.02266	0.13664	0.32417	0.32868	0.15175	0.0316	0.00352	0.00011	0	0	0	0	0
38.55	0	0	0	0	0	0	0.00086	0.02064	0.13427	0.32149	0.33001	0.1549	0.03404	0.00358	0.0002	1e-05	0	0	0	0
38.6	0	0	0	0	0	1e-05	0.00066	0.02147	0.13031	0.31836	0.33312	0.15636	0.0358	0.00373	0.00017	1e-05	0	0	0	0
38.65	0	0	0	0	0	0	0.00071	0.02015	0.12788	0.31874	0.33254	0.16094	0.03554	0.00335	0.00015	0	0	0	0	0
38.7	0	0	0	0	0	0	0.00083	0.0201	0.12626	0.3114	0.34004	0.16097	0.03653	0.00364	0.00023	0	0	0	0	0
38.75	0	0	0	0	0	1e-05	0.0008	0.01972	0.12502	0.31204	0.33831	0.16202	0.03789	0.00398	0.00021	0	0	0	0	0
38.8	0	0	0	0	0	0	0.00066	0.01907	0.12136	0.30769	0.34125	0.16643	0.03929	0.00406	0.00018	1e-05	0	0	0	0
38.85	0	0	0	0	0	1e-05	0.00062	0.01737	0.12044	0.30605	0.33902	0.17087	0.04071	0.00471	0.0002	0	0	0	0	0
38.9	0	0	0	0	0	1e-05	0.00058	0.01838	0.11737	0.30441	0.3433	0.17012	0.04086	0.00472	0.00024	1e-05	0	0	0	0
38.95	0	0	0	0	0	1e-05	0.00062	0.01645	0.11347	0.30302	0.34493	0.17389	0.0426	0.00474	0.00026	1e-05	0	0	0	0
39	0	0	0	0	0	0	0.00048	0.01676	0.11291	0.29904	0.34469	0.1769	0.04395	0.005	0.00027	0	0	0	0	0
39.05	0	0	0	0	0	0	0.00057	0.01623	0.11128	0.29908	0.3439	0.17966	0.04389	0.00509	0.00029	1e-05	0	0	0	0
39.1	0	0	0	0	0	0	0.00048	0.01512	0.1096	0.2965	0.34405	0.18217	0.04604	0.00584	0.0002	0	0	0	0	0
39.15	0	0	0	0	0	0	0.0004	0.01569	0.10801	0.29355	0.34561	0.18447	0.0461	0.00587	0.0003	0	0	0	0	0
39.2	0	0	0	0	0	0	0.00044	0.01491	0.10598	0.2894	0.34813	0.18658	0.04824	0.00593	0.00039	0	0	0	0	0
39.25	0	0	0	0	0	0	0.00037	0.01391	0.10393	0.289	0.3461	0.19111	0.04906	0.00612	0.0004	0	0	0	0	0
39.3	0	0	0	0	0	0	0.00032	0.01365	0.10068	0.28747	0.34778	0.19192	0.0511	0.00671	0.00036	1e-05	0	0	0	0
39.35	0	0	0	0	0	0	0.00041	0.01348	0.10002	0.28131	0.34989	0.19589	0.05217	0.00651	0.00032	0	0	0	0	0
39.4	0	0	0	0	0	0	0.00045	0.01285	0.0994	0.28148	0.34917	0.19725	0.05256	0.00655	0.00028	1e-05	0	0	0	0
39.45	0	0	0	0	0	0	0.00037	0.01247	0.09771	0.27546	0.34942	0.20208	0.05492	0.00717	0.00039	1e-05	0	0	0	0
39.5	0	0	0	0	0	0	0.00037	0.01124	0.09375	0.2764	0.35312	0.20253	0.05499	0.00714	0.00043	3e-05	0	0	0	0
39.55	0	0	0	0	0	0	0.00027	0.01208	0.09246	0.27199	0.35073	0.20634	0.0579	0.00772	0.0005	1e-05	0	0	0	0
39.6	0	0	0	0	0	0	0.00031	0.01122	0.09105	0.27028	0.35313	0.20783	0.05756	0.00797	0.00063	2e-05	0	0	0	0
39.65	0	0	0	0	0	0	0.00029	0.01167	0.08885	0.26666	0.35251	0.21244	0.05867	0.00842	0.00048	1e-05	0	0	0	0
39.7	0	0	0	0	0	1e-05	0.00029	0.01091	0.08562	0.26505	0.35266	0.21369	0.06257	0.00867	0.00049	4e-05	0	0	0	0
39.75	0	0	0	0	0	0	0.00031	0.01035	0.08295	0.26312	0.35407	0.21753	0.06228	0.00887	0.00051	1e-05	0	0	0	0
39.8	0	0	0	0	0	0	0.0002	0.0099	0.08401	0.25972	0.35165	0.2198	0.06471	0.00935	0.00064	2e-05	0	0	0	0
39.85	0	0	0	0	0	0	0.0003	0.00992	0.08062	0.25905	0.35261	0.22144	0.06582	0.00954	0.00069	1e-05	0	0	0	0
39.9	0	0	0	0	0	0	0.00023	0.00924	0.08006	0.25617	0.35428	0.22281	0.06691	0.00954	0.0007	6e-05	0	0	0	0
39.95	0	0	0	0	0	0	0.00014	0.00847	0.07864	0.25251	0.35451	0.22487	0.07013	0.01	0.00072	1e-05	0	0	0	0
40	0	0	0	0	0	0	0.0002	0.00914	0.07695	0.24762	0.35485	0.23101	0.06953	0.00987	0.0008	3e-05	0	0	0	0
40.05	0	0	0	0	0	0	0.0001	0.00833	0.07403	0.24311	0.35549	0.23506	0.0724	0.01079	0.00066	3e-05	0	0	0	0
40.1	0	0	0	0	0	0	0.00013	0.00832	0.07258	0.24429	0.35495	0.23363	0.07388	0.01155	0.00065	2e-05	0	0	0	0
40.15	0	0	0	0	0	0	0.00016	0.00811	0.07293	0.24194	0.35283	0.23431	0.07634	0.01232	0.00103	3e-05	0	0	0	0
40.2	0	0	0	0	0	0	0.0002	0.00797	0.07081	0.23818	0.35291	0.23962	0.07716	0.01209	0.00101	5e-05	0	0	0	0
40.25	0	0	0	0	0	0	0.00018	0.00773	0.07035	0.23695	0.35348	0.23919	0.07862	0.01243	0.00103	4e-05	0	0	0	0
40.3	0	0	0	0	0	0	0.00014	0.00712	0.06685	0.23399	0.35231	0.24467	0.08099	0.01295	0.00095	3e-05	0	0	0	0
40.35	0	0	0	0	0	0	0.00012	0.00687	0.06626	0.23292	0.35344	0.24449	0.08142	0.01348	0.00098	2e-05	0	0	0	0
40.4	0	0	0	0	0	0	0.00013	0.00666	0.06528	0.22683	0.35229	0.2486	0.08507	0.01404	0.00103	7e-05	0	0	0	0
40.45	0	0	0	0	0	1e-05	0.00019	0.00625	0.06362	0.22613	0.35161	0.25118	0.08503	0.01485	0.00104	9e-05	0	0	0	0
40.5	0	0	0	0	0	0	0.00014	0.00596	0.06125	0.22321	0.35385	0.25297	0.08681	0.01472	0.00106	3e-05	0	0	0	0
40.55	0	0	0	0	0	0	8e-05	0.00618	0.06108	0.222	0.34906	0.25627	0.08875	0.01531	0.00121	6e-05	0	0	0	0
40.6	0	0	0	0	0	0	7e-05	0.00577	0.05876	0.21962	0.35108	0.2564	0.09118	0.0157	0.00134	8e-05	0	0	0	0
40.65	0	0	0	0	0	0	8e-05	0.006	0.05813	0.21462	0.35079	0.25849	0.09363	0.01704	0.00113	9e-05	0	0	0	0
40.7	0	0	0	0	0	0	0.00012	0.00544	0.05603	0.21318	0.34997	0.26183	0.09555	0.01653	0.00135	0	0	0	0	0
40.75	0	0	0	0	0	0	0.0001	0.00503	0.05564	0.213	0.3479	0.26284	0.09621	0.01784	0.00141	3e-05	0	0	0	0
40.8	0	0	0	0	0	0	0.0001	0.00524	0.05409	0.20749	0.34935	0.26623	0.09818	0.01765	0.00159	8e-05	0	0	0	0
40.85	0	0	0	0	0	0	0.0001	0.00473	0.05181	0.20655	0.34684	0.26987	0.09973	0.01857	0.00175	5e-05	0	0	0	0
40.9	0	0	0	0	0	0	4e-05	0.00496	0.05096	0.20126	0.34428	0.27471	0.10348	0.01866	0.00162	3e-05	0	0	0	0
40.95	0	0	0	0	0	0	5e-05	0.00447	0.04953	0.19895	0.34632	0.27417	0.10542	0.0193	0.00173	6e-05	0	0	0	0
41	0	0	0	0	0	0	2e-05	0.00449	0.04957	0.19547	0.34493	0.27637	0.10599	0.02112	0.00198	6e-05	0	0	0	0
41.05	0	0	0	0	0	0	6e-05	0.00449	0.04681	0.19564	0.3429	0.27929	0.10758	0.02087	0.00224	0.00012	0	0	0	0
41.1	0	0	0	0	0	0	8e-05	0.00412	0.04729	0.19125	0.34101	0.28075	0.11159	0.02196	0.0019	5e-05	0	0	0	0
41.15	0	0	0	0	0	0	6e-05	0.00418	0.04536	0.18949	0.34129	0.28303	0.11168	0.02269	0.00215	7e-05	0	0	0	0
41.2	0	0	0	0	0	0	7e-05	0.00379	0.04555	0.18741	0.3367	0.28434	0.11627	0.02348	0.00231	8e-05	0	0	0	0
41.25	0	0	0	0	0	0	1e-05	0.00377	0.04472	0.1821	0.33817	0.28907	0.11669	0.02303	0.00231	0.00011	2e-05	0	0	0
41.3	0	0	0	0	0	0	5e-05	0.00335	0.04206	0.18343	0.33637	0.2877	0.11947	0.0247	0.00273	0.00014	0	0	0	0
41.35	0	0	0	0	0	0	7e-05	0.00359	0.0419	0.18075	0.33396	0.29329	0.11935	0.02448	0.00245	0.00016	0	0	0	0
41.4	0	0	0	0	0	0	2e-05	0.0033	0.04048	0.17496	0.33493	0.29483	0.12289	0.02564	0.00284	0.00011	0	0	0	0
41.45	0	0	0	0	0	0	3e-05	0.00333	0.03952	0.17514	0.33421	0.29388	0.12395	0.02716	0.0027	8e-05	0	0	0	0
41.5	0	0	0	0	0	0	5e-05	0.00266	0.03918	0.17124	0.33643	0.29299	0.12776	0.02671	0.00284	0.00013	1e-05	0	0	0
41.55	0	0	0	0	0	0	7e-05	0.00267	0.03798	0.16943	0.32977	0.29899	0.13001	0.02786	0.00307	0.00014	1e-05	0	0	0
41.6	0	0	0	0	0	0	5e-05	0.00282	0.03717	0.1679	0.32875	0.29905	0.13229	0.02885	0.00294	0.00018	0	0	0	0
41.65	0	0	0	0	0	0	5e-05	0.00255	0.03559	0.16419	0.32678	0.30369	0.13386	0.02975	0.00338	0.00016	0	0	0	0
41.7	0	0	0	0	0	0	2e-05	0.00275	0.03532	0.16029	0.32663	0.30417	0.13659	0.03069	0.00329	0.00025	0	0	0	0
41.75	0	0	0	0	0	0	3e-05	0.00262	0.0347	0.1591	0.32517	0.3061	0.13712	0.03186	0.00318	0.00012	0	0	0	0
41.8	0	0	0	0	0	0	0	0.00232	0.03334	0.15893	0.32199	0.30833	0.13882	0.03226	0.00376	0.00025	0	0	0	0
41.85	0	0	0	0	0	0	1e-05	0.00215	0.03296	0.15576	0.32334	0.30599	0.14294	0.03294	0.00361	0.00028	2e-05	0	0	0
41.9	0	0	0	0	0	0	2e-05	0.00233	0.03129	0.1527	0.31746	0.3125	0.14424	0.03518	0.00418	0.0001	0	0	0	0
41.95	0	0	0	0	0	0	3e-05	0.00196	0.03061	0.15188	0.31883	0.31112	0.14693	0.03413	0.00426	0.00025	0	0	0	0
42	0	0	0	0	0	0	1e-05	0.00194	0.02942	0.14762	0.31434	0.31601	0.15073	0.03521	0.0045	0.0002	2e-05	0	0	0
42.05	0	0	0	0	0	0	6e-05	0.00199	0.03059	0.1462	0.31202	0.31505	0.15203	0.03746	0.00434	0.00026	0	0	0	0
42.1	0	0	0	0	0	0	3e-05	0.00217	0.02877	0.14093	0.31725	0.31368	0.15465	0.03771	0.00447	0.00032	2e-05	0	0	0
42.15	0	0	0	0	0	0	4e-05	0.00167	0.02742	0.1417	0.31253	0.31626	0.15688	0.03867	0.00455	0.00027	1e-05	0	0	0
42.2	0	0	0	0	0	0	1e-05	0.00161	0.02762	0.14121	0.30999	0.31753	0.1573	0.03958	0.00482	0.00033	0	0	0	0
42.25	0	0	0	0	0	0	0	0.00162	0.02589	0.13635	0.30836	0.31994	0.16044	0.0416	0.00554	0.00025	1e-05	0	0	0
42.3	0	0	0	0	0	0	0	0.00172	0.02632	0.13436	0.30801	0.32066	0.16206	0.04143	0.00517	0.00024	3e-05	0	0	0
42.35	0	0	0	0	0	0	0	0.00137	0.02559	0.13237	0.302	0.32225	0.16726	0.0431	0.00576	0.0003	0	0	0	0
42.4	0	0	0	0	0	0	2e-05	0.00137	0.02486	0.13414	0.30014	0.32223	0.16791	0.04343	0.00552	0.00037	1e-05	0	0	0
42.45	0	0	0	0	0	0	3e-05	0.00129	0.02355	0.12839	0.29829	0.32762	0.16933	0.04532	0.00583	0.00035	0	0	0	0
42.5	0	0	0	0	0	0	0	0.00142	0.02329	0.12753	0.29636	0.32804	0.17093	0.04564	0.00626	0.00053	0	0	0	0
42.55	0	0	0	0	0	0	2e-05	0.00135	0.02172	0.12499	0.29382	0.33104	0.17346	0.0467	0.00636	0.00053	1e-05	0	0	0
42.6	0	0	0	0	0	0	0	0.00152	0.02175	0.12142	0.29264	0.32892	0.17788	0.04868	0.00664	0.00053	2e-05	0	0	0
42.65	0	0	0	0	0	0	2e-05	0.001	0.02131	0.11961	0.29289	0.32997	0.17816	0.04953	0.00705	0.00041	5e-05	0	0	0
42.7	0	0	0	0	0	0	1e-05	0.00105	0.01984	0.12061	0.28853	0.33068	0.18047	0.05069	0.00758	0.00054	0	0	0	0
42.75	0	0	0	0	0	0	1e-05	0.00103	0.02068	0.11525	0.28606	0.33283	0.18417	0.05212	0.00733	0.00051	1e-05	0	0	0
42.8	0	0	0	0	0	0	1e-05	0.00098	0.01904	0.1156	0.28518	0.33039	0.18713	0.0533	0.00793	0.00043	1e-05	0	0	0
42.85	0	0	0	0	0	0	2e-05	0.00114	0.01892	0.11344	0.28349	0.33006	0.19054	0.05437	0.00751	0.0005	1e-05	0	0	0
42.9	0	0	0	0	0	0	1e-05	0.00115	0.01857	0.11019	0.27804	0.335	0.19219	0.05607	0.00817	0.0006	1e-05	0	0	0
42.95	0	0	0	0	0	0	0	0.00085	0.01821	0.10884	0.27918	0.33239	0.19496	0.05614	0.00873	0.00068	2e-05	0	0	0
43	0	0	0	0	0	0	3e-05	0.00095	0.0181	0.10761	0.27527	0.33157	0.19828	0.05869	0.00877	0.0007	3e-05	0	0	0
43.05	0	0	0	0	0	0	0	0.0009	0.01637	0.10575	0.2738	0.33638	0.19753	0.05946	0.00909	0.00067	5e-05	0	0	0
43.1	0	0	0	0	0	0	1e-05	0.00077	0.01583	0.10469	0.27071	0.33599	0.2011	0.06049	0.00972	0.00066	3e-05	0	0	0
43.15	0	0	0	0	0	0	1e-05	0.00076	0.01611	0.10095	0.26955	0.33792	0.20307	0.06105	0.00972	0.00082	4e-05	0	0	0
43.2	0	0	0	0	0	0	0	0.00075	0.01667	0.09913	0.26603	0.33604	0.20568	0.06428	0.01051	0.00083	7e-05	1e-05	0	0
43.25	0	0	0	0	0	0	0	0.00045	0.01518	0.0973	0.26388	0.33932	0.20636	0.06598	0.01066	0.00086	1e-05	0	0	0
43.3	0	0	0	0	0	0	0	0.00064	0.01509	0.09578	0.26171	0.33956	0.20937	0.06582	0.01102	0.00097	4e-05	0	0	0
43.35	0	0	0	0	0	0	2e-05	0.00075	0.01404	0.09427	0.25695	0.34034	0.21402	0.06805	0.0104	0.0011	6e-05	0	0	0
43.4	0	0	0	0	0	0	0	0.0007	0.01363	0.09299	0.26006	0.33659	0.21476	0.06812	0.01212	0.00096	7e-05	0	0	0
43.45	0	0	0	0	0	0	0	0.00051	0.01372	0.09004	0.25643	0.3382	0.21725	0.07134	0.01151	0.00093	6e-05	1e-05	0	0
43.5	0	0	0	0	0	0	1e-05	0.00057	0.01288	0.08965	0.25261	0.34066	0.21848	0.07208	0.01192	0.0011	4e-05	0	0	0
43.55	0	0	0	0	0	0	0	0.00051	0.01258	0.08593	0.25468	0.33703	0.22235	0.07309	0.01255	0.00127	1e-05	0	0	0
43.6	0	0	0	0	0	0	0	0.00054	0.01226	0.08606	0.24861	0.34106	0.22422	0.07374	0.01216	0.00127	8e-05	0	0	0
43.65	0	0	0	0	0	0	0	0.0005	0.01171	0.08252	0.24615	0.33938	0.22775	0.07717	0.01358	0.00119	5e-05	0	0	0
43.7	0	0	0	0	0	0	0	0.00053	0.01115	0.08207	0.24422	0.33836	0.23014	0.07789	0.01442	0.00109	0.00011	2e-05	0	0
43.75	0	0	0	0	0	0	1e-05	0.00046	0.01184	0.07983	0.24085	0.3389	0.23087	0.08138	0.01457	0.00123	6e-05	0	0	0
43.8	0	0	0	0	0	0	1e-05	0.00047	0.01105	0.07995	0.23828	0.33881	0.23457	0.08086	0.01458	0.00135	6e-05	1e-05	0	0
43.85	0	0	0	0	0	0	0	0.00045	0.01059	0.0781	0.23747	0.33599	0.23581	0.08489	0.01509	0.00154	7e-05	0	0	0
43.9	0	0	0	0	0	0	1e-05	0.00037	0.00992	0.0751	0.23512	0.33933	0.23762	0.08537	0.01564	0.00146	6e-05	0	0	0
43.95	0	0	0	0	0	0	0	0.0004	0.01018	0.07368	0.23203	0.3393	0.2401	0.08612	0.01655	0.00153	0.00011	0	0	0
44	0	0	0	0	0	0	0	0.00039	0.00971	0.07186	0.2285	0.33812	0.24495	0.08808	0.01655	0.00176	8e-05	0	0	0
44.05	0	0	0	0	0	0	0	0.00025	0.00905	0.07141	0.22562	0.3398	0.24602	0.08843	0.0177	0.00164	8e-05	0	0	0
44.1	0	0	0	0	0	0	0	0.00027	0.00902	0.06968	0.22484	0.33941	0.24539	0.09108	0.01832	0.00188	0.00011	0	0	0
44.15	0	0	0	0	0	0	1e-05	0.00026	0.00884	0.06828	0.22297	0.33714	0.2497	0.0932	0.01783	0.00168	8e-05	1e-05	0	0
44.2	0	0	0	0	0	0	0	0.00026	0.00858	0.06606	0.21791	0.3377	0.2526	0.09611	0.01884	0.00186	7e-05	1e-05	0	0
44.25	0	0	0	0	0	0	0	0.00024	0.00849	0.06659	0.21704	0.33588	0.25339	0.09617	0.01987	0.00218	0.00015	0	0	0
44.3	0	0	0	0	0	0	0	0.00032	0.0082	0.06529	0.21263	0.33511	0.25924	0.09741	0.01964	0.00206	8e-05	2e-05	0	0
44.35	0	0	0	0	0	0	0	0.00026	0.00824	0.06367	0.211	0.3361	0.25707	0.10046	0.02117	0.00194	9e-05	0	0	0
44.4	0	0	0	0	0	0	0	0.00019	0.0071	0.0628	0.21191	0.33426	0.2596	0.10104	0.02058	0.00242	0.0001	0	0	0
44.45	0	0	0	0	0	0	0	0.00023	0.00707	0.05967	0.20989	0.33284	0.26154	0.10429	0.02216	0.0022	0.00011	0	0	0
44.5	0	0	0	0	0	0	0	0.00021	0.00726	0.05954	0.20472	0.33113	0.26342	0.10883	0.02251	0.00227	0.00011	0	0	0
44.55	0	0	0	0	0	0	0	0.00018	0.00666	0.05775	0.20192	0.33412	0.26629	0.10799	0.0225	0.00241	0.00017	1e-05	0	0
44.6	0	0	0	0	0	0	0	0.00019	0.00657	0.05827	0.19926	0.33112	0.26824	0.10949	0.02421	0.0025	0.00014	1e-05	0	0
44.65	0	0	0	0	0	0	0	0.00025	0.00632	0.05462	0.19854	0.33032	0.27023	0.11316	0.02384	0.00256	0.00016	0	0	0
44.7	0	0	0	0	0	0	0	0.00017	0.0064	0.05501	0.19402	0.32952	0.27242	0.11493	0.02432	0.00304	0.00017	0	0	0
44.75	0	0	0	0	0	0	0	0.00014	0.00581	0.05462	0.19183	0.32885	0.27235	0.11699	0.02633	0.0029	0.00017	1e-05	0	0
44.8	0	0	0	0	0	0	0	0.00017	0.00549	0.0526	0.19015	0.33052	0.27391	0.11752	0.02661	0.0029	0.00013	0	0	0
44.85	0	0	0	0	0	0	0	0.00018	0.00559	0.05174	0.19044	0.32457	0.27515	0.12188	0.02708	0.00316	0.0002	1e-05	0	0
44.9	0	0	0	0	0	0	0	0.00012	0.00529	0.04949	0.1857	0.32685	0.27995	0.1201	0.02862	0.00365	0.00022	1e-05	0	0
44.95	0	0	0	0	0	0	0	0.0001	0.00538	0.0489	0.18391	0.32513	0.28076	0.12357	0.02856	0.00348	0.00021	0	0	0
45	0	0	0	0	0	0	0	0.00014	0.00534	0.04764	0.18144	0.32335	0.28247	0.127	0.02889	0.00357	0.00015	1e-05	0	0
45.05	0	0	0	0	0	0	0	0.00021	0.00496	0.04743	0.17874	0.32532	0.28097	0.12714	0.03106	0.00385	0.00031	1e-05	0	0
45.1	0	0	0	0	0	0	0	0.0001	0.00474	0.04589	0.17718	0.32241	0.28544	0.12985	0.03031	0.00381	0.00027	0	0	0
45.15	0	0	0	0	0	0	0	0.00012	0.0044	0.04483	0.17409	0.31981	0.28838	0.13275	0.03124	0.00406	0.00032	0	0	0
45.2	0	0	0	0	0	0	0	0.0001	0.00413	0.04393	0.17243	0.31796	0.2898	0.13489	0.0327	0.00376	0.0003	0	0	0
45.25	0	0	0	0	0	0	0	0.0001	0.00435	0.04242	0.17104	0.31691	0.28883	0.13714	0.03466	0.00426	0.00029	0	0	0
45.3	0	0	0	0	0	0	0	0.00014	0.00377	0.04236	0.16771	0.31485	0.29403	0.13822	0.0341	0.00451	0.0003	1e-05	0	0
45.35	0	0	0	0	0	0	1e-05	2e-05	0.00397	0.0419	0.16423	0.31612	0.29348	0.14034	0.03533	0.00438	0.00021	1e-05	0	0
45.4	0	0	0	0	0	0	0	7e-05	0.00385	0.03936	0.16252	0.31315	0.29733	0.14339	0.03494	0.00507	0.00031	1e-05	0	0
45.45	0	0	0	0	0	0	0	8e-05	0.00382	0.03829	0.1622	0.3125	0.29685	0.14352	0.03711	0.00515	0.00046	2e-05	0	0
45.5	0	0	0	0	0	0	0	2e-05	0.00384	0.03835	0.1584	0.31183	0.29732	0.14724	0.03738	0.00525	0.00034	3e-05	0	0
45.55	0	0	0	0	0	0	0	6e-05	0.00338	0.03784	0.15594	0.30965	0.29925	0.1488	0.03967	0.00505	0.00035	1e-05	0	0
45.6	0	0	0	0	0	0	0	2e-05	0.00335	0.03692	0.15505	0.30666	0.30201	0.15083	0.03941	0.00536	0.00036	3e-05	0	0
45.65	0	0	0	0	0	0	0	6e-05	0.00316	0.03538	0.15042	0.30703	0.30208	0.15518	0.04044	0.00585	0.0004	0	0	0
45.7	0	0	0	0	0	0	0	9e-05	0.00321	0.03539	0.149	0.30315	0.30697	0.15534	0.04083	0.00556	0.00045	1e-05	0	0
45.75	0	0	0	0	0	0	0	5e-05	0.00291	0.03334	0.14793	0.30149	0.3064	0.15769	0.04359	0.00616	0.00043	1e-05	0	0
45.8	0	0	0	0	0	0	0	5e-05	0.00311	0.03199	0.1461	0.30148	0.30709	0.16055	0.04281	0.00632	0.00047	3e-05	0	0
45.85	0	0	0	0	0	0	0	0.00012	0.00277	0.03361	0.14591	0.29708	0.30814	0.16089	0.04437	0.00655	0.00051	5e-05	0	0
45.9	0	0	0	0	0	0	0	5e-05	0.00296	0.03143	0.1435	0.29751	0.30898	0.16344	0.04489	0.00658	0.00063	3e-05	0	0
45.95	0	0	0	0	0	0	0	4e-05	0.00274	0.03081	0.13901	0.29678	0.31168	0.16495	0.04668	0.00687	0.00041	3e-05	0	0
46	0	0	0	0	0	0	0	1e-05	0.00247	0.02992	0.13814	0.29319	0.31345	0.16754	0.04788	0.00678	0.0006	2e-05	0	0
46.05	0	0	0	0	0	0	0	3e-05	0.00232	0.0273	0.13591	0.29589	0.31124	0.17028	0.04871	0.00763	0.00067	2e-05	0	0
46.1	0	0	0	0	0	0	0	1e-05	0.00246	0.02852	0.13242	0.28911	0.31684	0.17229	0.05009	0.00771	0.00053	2e-05	0	0
46.15	0	0	0	0	0	0	0	4e-05	0.00225	0.02786	0.13091	0.29019	0.31424	0.17472	0.05095	0.00808	0.00074	2e-05	0	0
46.2	0	0	0	0	0	0	0	3e-05	0.00191	0.02726	0.12979	0.28668	0.31583	0.17729	0.05219	0.00844	0.00056	2e-05	0	0
46.25	0	0	0	0	0	0	0	1e-05	0.00217	0.02729	0.12569	0.28608	0.31485	0.17957	0.05529	0.00828	0.00075	2e-05	0	0
46.3	0	0	0	0	0	0	0	7e-05	0.00196	0.02647	0.12468	0.2832	0.31789	0.1817	0.05465	0.00879	0.00056	3e-05	0	0
46.35	0	0	0	0	0	0	0	8e-05	0.00217	0.02498	0.12401	0.28185	0.31766	0.18362	0.05543	0.00922	0.00094	4e-05	0	0
46.4	0	0	0	0	0	0	0	3e-05	0.00185	0.02405	0.12133	0.27943	0.3174	0.18637	0.05857	0.01013	0.00083	1e-05	0	0
46.45	0	0	0	0	0	0	0	2e-05	0.00176	0.02414	0.11912	0.27843	0.32033	0.18725	0.05821	0.00998	0.00072	4e-05	0	0
46.5	0	0	0	0	0	0	0	4e-05	0.00166	0.02332	0.11942	0.27503	0.32098	0.18865	0.05974	0.01013	0.00098	5e-05	0	0
46.55	0	0	0	0	0	0	0	3e-05	0.00144	0.02231	0.11726	0.27466	0.32115	0.1917	0.06006	0.01047	0.0009	2e-05	0	0
46.6	0	0	0	0	0	0	0	2e-05	0.00156	0.02232	0.11533	0.27131	0.31958	0.19611	0.06226	0.0105	0.00096	5e-05	0	0
46.65	0	0	0	0	0	0	0	1e-05	0.00144	0.02114	0.1111	0.27248	0.32157	0.19662	0.06379	0.0108	0.001	5e-05	0	0
46.7	0	0	0	0	0	0	0	1e-05	0.00141	0.02112	0.10936	0.26884	0.32225	0.19922	0.06529	0.01128	0.00116	6e-05	0	0
46.75	0	0	0	0	0	0	0	4e-05	0.00132	0.01994	0.1094	0.26832	0.32196	0.19902	0.06684	0.01194	0.00117	5e-05	0	0
46.8	0	0	0	0	0	0	0	0	0.00122	0.01939	0.10773	0.26068	0.32517	0.20425	0.06782	0.01228	0.00135	0.00011	0	0
46.85	0	0	0	0	0	0	0	3e-05	0.00134	0.01987	0.10673	0.26071	0.32378	0.20493	0.06915	0.01216	0.00128	2e-05	0	0
46.9	0	0	0	0	0	0	0	0	0.00129	0.01944	0.1025	0.26071	0.32587	0.20563	0.07016	0.01291	0.00139	9e-05	1e-05	0
46.95	0	0	0	0	0	0	0	1e-05	0.00119	0.01813	0.10049	0.25974	0.32279	0.20918	0.07319	0.01392	0.00132	4e-05	0	0
47	0	0	0	0	0	0	0	1e-05	0.0011	0.01862	0.09956	0.25303	0.32485	0.21393	0.07297	0.01437	0.0015	5e-05	1e-05	0
47.05	0	0	0	0	0	0	0	1e-05	0.00133	0.01761	0.09782	0.25299	0.32506	0.21358	0.07571	0.01436	0.00146	7e-05	0	0
47.1	0	0	0	0	0	0	0	1e-05	0.0011	0.01773	0.09677	0.25095	0.32577	0.21537	0.07566	0.01504	0.00148	0.00012	0	0
47.15	0	0	0	0	0	0	0	0	0.00123	0.01693	0.09477	0.24699	0.3251	0.2203	0.0776	0.0153	0.00171	7e-05	0	0
47.2	0	0	0	0	0	0	0	3e-05	0.00114	0.01572	0.09311	0.24762	0.32487	0.2217	0.07931	0.01492	0.00151	7e-05	0	0
47.25	0	0	0	0	0	0	0	2e-05	0.00098	0.01522	0.09037	0.24646	0.32476	0.22244	0.08175	0.0161	0.00183	7e-05	0	0
47.3	0	0	0	0	0	0	0	1e-05	0.00074	0.01504	0.08985	0.24236	0.32817	0.22471	0.08108	0.01637	0.00153	0.00014	0	0
47.35	0	0	0	0	0	0	0	2e-05	0.00069	0.01533	0.08939	0.23903	0.32536	0.22718	0.08442	0.01676	0.00173	9e-05	0	0
47.4	0	0	0	0	0	0	0	0	0.00088	0.01407	0.08667	0.24003	0.32186	0.23049	0.08629	0.01769	0.00193	9e-05	0	0
47.45	0	0	0	0	0	0	0	1e-05	0.00075	0.01412	0.08855	0.23636	0.32344	0.22967	0.08768	0.01735	0.00196	0.00011	0	0
47.5	0	0	0	0	0	0	0	0	0.0008	0.01358	0.08335	0.2335	0.32441	0.233	0.09081	0.01849	0.00194	0.00012	0	0
47.55	0	0	0	0	0	0	0	0	0.00076	0.01274	0.08157	0.2296	0.32576	0.23556	0.09249	0.01923	0.00219	0.0001	0	0
47.6	0	0	0	0	0	0	0	0	0.00065	0.01227	0.0801	0.23103	0.32615	0.23534	0.09218	0.0201	0.00207	0.0001	1e-05	0
47.65	0	0	0	0	0	0	0	1e-05	0.00069	0.01266	0.07975	0.22727	0.32595	0.23979	0.09192	0.01951	0.00229	0.00016	0	0
47.7	0	0	0	0	0	0	0	1e-05	0.00062	0.01209	0.07836	0.22392	0.32493	0.24284	0.09464	0.01984	0.00263	0.00011	1e-05	0
47.75	0	0	0	0	0	0	0	0	0.00063	0.01226	0.07603	0.22184	0.32611	0.24284	0.09611	0.02135	0.0027	0.00013	0	0
47.8	0	0	0	0	0	0	0	0	0.00066	0.01171	0.07492	0.21908	0.32467	0.24501	0.09922	0.02182	0.00272	0.00019	0	0
47.85	0	0	0	0	0	0	0	1e-05	0.00055	0.01153	0.07457	0.21908	0.32072	0.24595	0.10151	0.02293	0.00294	0.00019	1e-05	1e-05
47.9	0	0	0	0	0	0	0	0	0.00054	0.01054	0.07225	0.21772	0.32395	0.24773	0.10199	0.02217	0.00293	0.00018	0	0
47.95	0	0	0	0	0	0	0	0	0.00044	0.01091	0.0697	0.21325	0.32319	0.25249	0.10382	0.02344	0.00254	0.0002	2e-05	0
48	0	0	0	0	0	0	0	0	0.00048	0.00999	0.06797	0.21286	0.32331	0.25308	0.10508	0.02373	0.00331	0.00017	2e-05	0
48.05	0	0	0	0	0	0	0	0	0.00036	0.01076	0.06852	0.20823	0.32264	0.25359	0.10758	0.02482	0.00326	0.00024	0	0
48.1	0	0	0	0	0	0	0	1e-05	0.00055	0.00939	0.06677	0.20886	0.3187	0.25912	0.10794	0.02533	0.00311	0.00022	0	0
48.15	0	0	0	0	0	0	0	0	0.00046	0.00973	0.0646	0.20608	0.32084	0.25698	0.11177	0.02596	0.00334	0.00024	0	0
48.2	0	0	0	0	0	0	0	0	0.0005	0.00867	0.06377	0.20184	0.31995	0.26217	0.1132	0.0261	0.00354	0.00023	3e-05	0
48.25	0	0	0	0	0	0	0	0	0.0003	0.00834	0.06269	0.19935	0.31945	0.26258	0.11533	0.0279	0.00377	0.00029	0	0
48.3	0	0	0	0	0	0	0	0	0.00034	0.00887	0.06274	0.19833	0.31726	0.26372	0.11617	0.02865	0.00361	0.0003	1e-05	0
48.35	0	0	0	0	0	0	0	0	0.00037	0.00847	0.06038	0.1977	0.31543	0.26633	0.11786	0.02903	0.00414	0.00027	2e-05	0
48.4	0	0	0	0	0	0	0	0	0.00045	0.0081	0.05923	0.19085	0.31869	0.26817	0.12009	0.03012	0.00402	0.00026	2e-05	0
48.45	0	0	0	0	0	0	0	3e-05	0.00043	0.00738	0.05723	0.19091	0.31717	0.26803	0.12366	0.03071	0.00412	0.00033	0	0
48.5	0	0	0	0	0	0	0	0	0.00029	0.00798	0.05788	0.18919	0.31649	0.26903	0.12402	0.03029	0.00452	0.00031	0	0
48.55	0	0	0	0	0	0	0	0	0.0003	0.0071	0.05589	0.18586	0.316	0.27082	0.12718	0.03201	0.0045	0.00034	0	0
48.6	0	0	0	0	0	0	0	0	0.00031	0.00656	0.05467	0.1885	0.31039	0.27347	0.12903	0.03187	0.00489	0.0003	1e-05	0
48.65	0	0	0	0	0	0	0	0	0.00041	0.00679	0.05405	0.18292	0.31107	0.27478	0.132	0.03285	0.00477	0.00032	4e-05	0
48.7	0	0	0	0	0	0	0	0	0.00024	0.00631	0.05284	0.18328	0.30959	0.27472	0.13268	0.03515	0.00473	0.00044	2e-05	0
48.75	0	0	0	0	0	0	0	0	0.00027	0.00646	0.05112	0.17875	0.31266	0.27604	0.13439	0.03485	0.00518	0.00027	1e-05	0
48.8	0	0	0	0	0	0	0	0	0.00031	0.00652	0.04928	0.17594	0.3089	0.28198	0.13444	0.03634	0.0058	0.00049	0	0
48.85	0	0	0	0	0	0	0	0	0.0002	0.00589	0.04901	0.17246	0.3097	0.28026	0.13896	0.03786	0.00524	0.0004	2e-05	0
48.9	0	0	0	0	0	0	0	1e-05	0.0002	0.00599	0.04972	0.17111	0.30637	0.28122	0.14118	0.038	0.0057	0.00049	1e-05	0
48.95	0	0	0	0	0	0	0	0	0.0002	0.00558	0.04736	0.17052	0.30523	0.28369	0.14194	0.03905	0.00602	0.00041	0	0
49	0	0	0	0	0	0	0	0	0.00025	0.00558	0.04663	0.16976	0.30396	0.28468	0.14285	0.03982	0.00603	0.00042	2e-05	0
49.05	0	0	0	0	0	0	0	0	0.00023	0.00545	0.04492	0.16564	0.30582	0.28562	0.14657	0.03906	0.00609	0.00053	7e-05	0
49.1	0	0	0	0	0	0	0	0	0.00024	0.00566	0.04343	0.16316	0.30115	0.28998	0.14675	0.0428	0.0064	0.00041	2e-05	0
49.15	0	0	0	0	0	0	0	0	9e-05	0.0054	0.04254	0.16038	0.30088	0.29031	0.14885	0.04395	0.00686	0.00072	2e-05	0
49.2	0	0	0	0	0	0	0	0	0.00026	0.00495	0.04203	0.15964	0.29606	0.29526	0.15185	0.04274	0.00674	0.00045	2e-05	0
49.25	0	0	0	0	0	0	0	0	0.00019	0.00488	0.04165	0.15703	0.29459	0.29467	0.15595	0.0436	0.00685	0.00056	3e-05	0
49.3	0	0	0	0	0	0	0	0	0.00017	0.00468	0.04012	0.15425	0.296	0.2963	0.15486	0.0456	0.00742	0.00058	2e-05	0
49.35	0	0	0	0	0	0	0	0	0.00016	0.00449	0.03936	0.15408	0.29663	0.29308	0.15751	0.04636	0.00765	0.00066	2e-05	0
49.4	0	0	0	0	0	0	0	0	0.00013	0.00467	0.0399	0.15252	0.29478	0.29189	0.16091	0.04714	0.00723	0.00077	6e-05	0
49.45	0	0	0	0	0	0	0	0	0.00014	0.00452	0.03761	0.14943	0.2919	0.2973	0.16149	0.04845	0.00833	0.00078	5e-05	0
49.5	0	0	0	0	0	0	0	0	0.00013	0.00387	0.03663	0.14817	0.28879	0.29821	0.1649	0.05002	0.00847	0.0008	1e-05	0
49.55	0	0	0	0	0	0	0	0	0.00011	0.00377	0.03649	0.14568	0.28935	0.29852	0.16615	0.05041	0.00875	0.00072	5e-05	0
49.6	0	0	0	0	0	0	0	0	0.00019	0.00356	0.03599	0.14289	0.28951	0.29945	0.16581	0.05217	0.00944	0.00094	4e-05	1e-05
49.65	0	0	0	0	0	0	0	0	8e-05	0.00359	0.03504	0.14058	0.28647	0.30102	0.17146	0.05138	0.00957	0.0008	1e-05	0
49.7	0	0	0	0	0	0	0	0	8e-05	0.00338	0.03403	0.13927	0.28405	0.30239	0.17107	0.05493	0.00979	0.00097	4e-05	0
49.75	0	0	0	0	0	0	0	1e-05	6e-05	0.00361	0.03244	0.13668	0.2824	0.30374	0.17482	0.05509	0.01012	0.00096	6e-05	1e-05
49.8	0	0	0	0	0	0	0	0	0.0001	0.00336	0.03203	0.13527	0.28129	0.30396	0.17589	0.05715	0.00992	0.001	3e-05	0
49.85	0	0	0	0	0	0	0	0	0.00011	0.00326	0.03178	0.1326	0.27932	0.3056	0.17707	0.0582	0.01093	0.00107	6e-05	0
49.9	0	0	0	0	0	0	0	0	0.00011	0.00304	0.03132	0.13097	0.27914	0.30535	0.17903	0.0584	0.01147	0.00111	6e-05	0
49.95	0	0	0	0	0	0	0	0	0.0001	0.00282	0.02888	0.13146	0.27531	0.30636	0.18249	0.06003	0.01127	0.00121	7e-05	0
50	0	0	0	0	0	0	0	0	9e-05	0.00275	0.02927	0.12845	0.27383	0.30645	0.18621	0.06046	0.01114	0.00128	7e-05	0
